Time,Channel A,Channel B,Channel C,Channel D
(ns),(mV),(mV),(mV),(V)

-15.40571483,-4.01390200,-3.90625000,4.06003900,0.00784326
-15.32571482,-4.01390200,-3.75246000,4.41375400,0.00784326
-15.24571482,-3.78321800,-3.44488200,4.85974400,0.00787402
-15.16571482,-3.36798700,-3.02965000,5.38262700,0.00787402
-15.08571482,-2.82972400,-2.52214600,5.92089000,0.00790477
-15.00571482,-2.21456700,-1.96850400,6.47453200,0.00790477
-14.92571482,-1.59940900,-1.43024100,6.96665800,0.00790477
-14.84571482,-1.01501000,-0.93811510,7.38188900,0.00787402
-14.76571482,-0.53826270,-0.49212600,7.67408900,0.00784326
-14.68571482,-0.15378940,-0.13841040,7.82787800,0.00784326
-14.60571481,0.12303150,0.12303150,7.82787800,0.00784326
-14.52571481,0.27682080,0.30757870,7.67408900,0.00784326
-14.44571481,0.35371550,0.43061020,7.38188900,0.00787402
-14.36571481,0.35371550,0.50750490,6.96665800,0.00790477
-14.28571481,0.30757870,0.53826270,6.47453200,0.00790477
-14.20571481,0.23068400,0.53826270,5.92089000,0.00790477
-14.12571481,0.16916830,0.50750490,5.38262700,0.00790477
-14.04571481,0.09227362,0.43061020,4.85974400,0.00787402
-13.96571481,0.04613681,0.30757870,4.41375400,0.00784326
-13.88571480,0.01537894,0.12303150,4.06003900,0.00784326
-13.80571480,0.00000000,-0.13841040,3.81397600,0.00784326
-13.72571480,-0.01537894,-0.49212600,3.66018700,0.00784326
-13.64571480,0.00000000,-0.93811510,3.59867100,0.00787402
-13.56571480,0.00000000,-1.43024100,3.59867100,0.00790477
-13.48571480,0.00000000,-1.96850400,3.64480800,0.00790477
-13.40571480,0.00000000,-2.52214600,3.72170300,0.00790477
-13.32571480,0.00000000,-3.01427100,3.78321800,0.00790477
-13.24571480,0.00000000,-3.44488200,3.84473400,0.00787402
-13.16571480,0.00000000,-3.73708200,3.89087100,0.00784326
-13.08571479,0.00000000,-3.90625000,3.90625000,0.00784326
-13.00571479,0.00000000,-3.90625000,3.92162900,0.00784326
-12.92571479,0.00000000,-3.73708200,3.93700800,0.00784326
-12.84571479,0.00000000,-3.44488200,3.93700800,0.00787402
-12.76571479,0.00000000,-3.01427100,3.95238700,0.00790477
-12.68571479,0.00000000,-2.52214600,3.95238700,0.00790477
-12.60571479,0.00000000,-1.96850400,3.95238700,0.00790477
-12.52571479,0.00000000,-1.43024100,3.95238700,0.00787402
-12.44571479,0.00000000,-0.92273620,3.93700800,0.00787402
-12.36571478,0.00000000,-0.49212600,3.92162900,0.00784326
-12.28571478,0.00000000,-0.13841040,3.92162900,0.00784326
-12.20571478,0.00000000,0.10765260,3.92162900,0.00787402
-12.12571478,0.00000000,0.27682080,3.92162900,0.00793553
-12.04571478,0.00000000,0.33833660,3.93700800,0.00805856
-11.96571478,0.00000000,0.35371550,3.95238700,0.00821235
-11.88571478,0.00000000,0.30757870,3.95238700,0.00836614
-11.80571478,0.00000000,0.23068400,3.95238700,0.00851993
-11.72571478,0.00000000,0.15378940,3.95238700,0.00858145
-11.64571477,0.00000000,0.09227362,3.93700800,0.00855069
-11.56571477,0.00000000,0.03075787,3.92162900,0.00839690
-11.48571477,0.00000000,0.00000000,3.92162900,0.00805856
-11.40571477,0.00000000,0.00000000,3.92162900,0.00756644
-11.32571477,0.00000000,0.03075787,3.92162900,0.00688976
-11.24571477,0.00000000,0.09227362,3.93700800,0.00602854
-11.16571477,0.00000000,0.15378940,3.95238700,0.00501353
-11.08571477,0.00000000,0.23068400,3.95238700,0.00396777
-11.00571477,0.00000000,0.30757870,3.95238700,0.00286048
-10.92571477,0.00000000,0.33833660,3.95238700,0.00184547
-10.84571476,0.00000000,0.33833660,3.93700800,0.00098425
-10.76571476,0.00000000,0.26144190,3.93700800,0.00036909
-10.68571476,0.00000000,0.10765260,3.92162900,0.00003076
-10.60571476,0.00000000,-0.12303150,3.90625000,0.00003076
-10.52571476,0.00000000,-0.44598910,3.89087100,0.00036909
-10.44571476,0.00000000,-0.83046260,3.84473400,0.00098425
-10.36571476,0.00000000,-1.26107300,3.78321800,0.00184547
-10.28571476,0.00000000,-1.73782000,3.72170300,0.00286048
-10.20571476,0.00000000,-2.21456700,3.64480800,0.00396777
-10.12571475,0.00000000,-2.67593500,3.59867100,0.00501353
-10.04571475,0.00000000,-3.10654500,3.59867100,0.00602854
-9.96571475,-0.01537894,-3.47564000,3.66018700,0.00688976
-9.88571475,0.00000000,-3.78321800,3.81397600,0.00756644
-9.80571475,0.01537894,-4.04466000,4.06003900,0.00805856
-9.72571475,0.04613681,-4.22920700,4.41375400,0.00839690
-9.64571475,0.09227362,-4.36761800,4.85974400,0.00855069
-9.56571475,0.16916830,-4.44451300,5.38262700,0.00858145
-9.48571475,0.23068400,-4.49065000,5.92089000,0.00851993
-9.40571474,0.30757870,-4.49065000,6.47453200,0.00836614
-9.32571474,0.35371550,-4.44451300,6.96665800,0.00821235
-9.24571474,0.33833660,-4.36761800,7.38188900,0.00805856
-9.16571474,0.27682080,-4.22920700,7.67408900,0.00793553
-9.08571474,0.10765260,-4.04466000,7.82787800,0.00787402
-9.00571474,-0.13841040,-3.78321800,7.82787800,0.00784326
-8.92571474,-0.49212600,-3.47564000,7.67408900,0.00784326
-8.84571474,-0.92273620,-3.10654500,7.38188900,0.00787402
-8.76571474,-1.43024100,-2.67593500,6.96665800,0.00787402
-8.68571474,-1.96850400,-2.21456700,6.47453200,0.00790477
-8.60571473,-2.52214600,-1.73782000,5.92089000,0.00790477
-8.52571473,-3.01427100,-1.26107300,5.38262700,0.00787402
-8.44571473,-3.44488200,-0.83046260,4.85974400,0.00787402
-8.36571473,-3.73708200,-0.43061020,4.41375400,0.00784326
-8.28571473,-3.90625000,-0.12303150,4.06003900,0.00784326
-8.20571473,-3.90625000,0.09227362,3.81397600,0.00787402
-8.12571473,-3.73708200,0.21530510,3.66018700,0.00793553
-8.04571473,-3.44488200,0.24606300,3.59867100,0.00805856
-7.96571473,-3.01427100,0.18454720,3.59867100,0.00821235
-7.88571472,-2.52214600,0.06151574,3.64480800,0.00836614
-7.80571472,-1.96850400,-0.06151574,3.72170300,0.00851993
-7.72571472,-1.43024100,-0.18454720,3.78321800,0.00858145
-7.64571472,-0.92273620,-0.24606300,3.84473400,0.00858145
-7.56571472,-0.47674700,-0.21530510,3.89087100,0.00842766
-7.48571472,-0.13841040,-0.09227362,3.90625000,0.00808932
-7.40571472,0.10765260,0.12303150,3.92162900,0.00753568
-7.32571472,0.23068400,0.43061020,3.93700800,0.00679749
-7.24571472,0.24606300,0.83046260,3.93700800,0.00584400
-7.16571472,0.18454720,1.26107300,3.95238700,0.00470596
-7.08571471,0.06151574,1.73782000,3.95238700,0.00347564
-7.00571471,-0.06151574,2.21456700,3.95238700,0.00224533
-6.92571471,-0.18454720,2.67593500,3.95238700,0.00113804
-6.84571471,-0.24606300,3.10654500,3.93700800,0.00030758
-6.76571471,-0.23068400,3.49101900,3.92162900,-0.00018455
-6.68571471,-0.10765260,3.79859700,3.92162900,-0.00018455
-6.60571471,0.13841040,4.02928100,3.92162900,0.00033834
-6.52571471,0.47674700,4.18307100,3.92162900,0.00141486
-6.44571471,0.92273620,4.27534400,3.93700800,0.00304503
-6.36571470,1.43024100,4.29072300,3.95238700,0.00504429
-6.28571470,1.96850400,4.25996500,3.95238700,0.00728962
-6.20571470,2.52214600,4.18307100,3.95238700,0.00959646
-6.12571470,3.01427100,4.10617600,3.95238700,0.01174951
-6.04571470,3.42950300,4.01390200,3.93700800,0.01356422
-5.96571470,3.73708200,3.95238700,3.92162900,0.01488681
-5.88571470,3.89087100,3.92162900,3.92162900,0.01559424
-5.80571470,3.90625000,3.93700800,3.92162900,0.01562500
-5.72571470,3.78321800,3.99852300,3.92162900,0.01500984
-5.64571469,3.53715500,4.12155500,3.93700800,0.01377953
-5.56571469,3.18344000,4.27534400,3.95238700,0.01208784
-5.48571469,2.75283000,4.42913300,3.95238700,0.01008858
-5.40571469,2.27608300,4.56754400,3.95238700,0.00790477
-5.32571469,1.78395700,4.62906000,3.93700800,0.00572097
-5.24571469,1.26107300,4.61368100,3.93700800,0.00369095
-5.16571469,0.75356790,4.44451300,3.92162900,0.00193775
-5.08571469,0.24606300,4.13693400,3.92162900,0.00055364
-5.00571469,-0.24606300,3.66018700,3.93700800,-0.00046137
-4.92571469,-0.75356790,3.04502900,3.96776600,-0.00107653
-4.84571468,-1.26107300,2.27608300,4.02928100,-0.00135335
-4.76571468,-1.78395700,1.41486200,4.10617600,-0.00138410
-4.68571468,-2.27608300,0.47674700,4.18307100,-0.00123032
-4.60571468,-2.75283000,-0.47674700,4.25996500,-0.00095349
-4.52571468,-3.18344000,-1.41486200,4.29072300,-0.00064592
-4.44571468,-3.53715500,-2.27608300,4.27534400,-0.00036909
-4.36571468,-3.78321800,-3.04502900,4.18307100,-0.00015379
-4.28571468,-3.90625000,-3.66018700,4.02928100,-0.00003076
-4.20571468,-3.89087100,-4.13693400,3.79859700,0.00000000
-4.12571467,-3.73708200,-4.44451300,3.49101900,-0.00006152
-4.04571467,-3.42950300,-4.61368100,3.10654500,-0.00015379
-3.96571467,-3.01427100,-4.62906000,2.67593500,-0.00030758
-3.88571467,-2.52214600,-4.56754400,2.21456700,-0.00046137
-3.80571467,-1.96850400,-4.42913300,1.73782000,-0.00061516
-3.72571467,-1.43024100,-4.27534400,1.27645200,-0.00067667
-3.64571467,-0.93811510,-4.12155500,0.83046260,-0.00067667
-3.56571467,-0.49212600,-4.01390200,0.46136810,-0.00052288
-3.48571467,-0.13841040,-3.93700800,0.13841040,-0.00021531
-3.40571466,0.12303150,-3.90625000,-0.12303150,0.00024606
-3.32571466,0.30757870,-3.90625000,-0.30757870,0.00089198
-3.24571466,0.43061020,-3.92162900,-0.43061020,0.00166093
-3.16571466,0.50750490,-3.93700800,-0.50750490,0.00252215
-3.08571466,0.53826270,-3.95238700,-0.53826270,0.00347564
-3.00571466,0.53826270,-3.95238700,-0.53826270,0.00442913
-2.92571466,0.50750490,-3.95238700,-0.50750490,0.00535187
-2.84571466,0.43061020,-3.93700800,-0.43061020,0.00621309
-2.76571466,0.30757870,-3.92162900,-0.30757870,0.00695128
-2.68571466,0.12303150,-3.92162900,-0.12303150,0.00756644
-2.60571465,-0.13841040,-3.92162900,0.13841040,0.00808932
-2.52571465,-0.49212600,-3.92162900,0.46136810,0.00845842
-2.44571465,-0.93811510,-3.93700800,0.83046260,0.00873524
-2.36571465,-1.43024100,-3.95238700,1.27645200,0.00888903
-2.28571465,-1.96850400,-3.95238700,1.73782000,0.00898130
-2.20571465,-2.52214600,-3.95238700,2.21456700,0.00898130
-2.12571465,-3.01427100,-3.93700800,2.67593500,0.00888903
-2.04571465,-3.44488200,-3.93700800,3.10654500,0.00873524
-1.96571465,-3.73708200,-3.92162900,3.49101900,0.00845842
-1.88571464,-3.90625000,-3.92162900,3.79859700,0.00808932
-1.80571464,-3.90625000,-3.93700800,4.02928100,0.00756644
-1.72571464,-3.73708200,-3.96776600,4.18307100,0.00695128
-1.64571464,-3.44488200,-4.02928100,4.27534400,0.00621309
-1.56571464,-3.01427100,-4.10617600,4.29072300,0.00535187
-1.48571464,-2.52214600,-4.18307100,4.25996500,0.00442913
-1.40571464,-1.96850400,-4.25996500,4.18307100,0.00347564
-1.32571464,-1.43024100,-4.29072300,4.18307100,0.00255290
-1.24571464,-0.92273620,-4.27534400,4.25996500,0.00166093
-1.16571463,-0.49212600,-4.18307100,4.30610200,0.00092274
-1.08571463,-0.13841040,-4.02928100,4.15231300,0.00027682
-1.00571463,0.10765260,-3.79859700,3.56791300,-0.00024606
-0.92571463,0.27682080,-3.49101900,2.41449300,-0.00061516
-0.84571463,0.33833660,-3.10654500,0.59977850,-0.00086122
-0.76571463,0.35371550,-2.67593500,-1.73782000,-0.00101501
-0.68571463,0.30757870,-2.21456700,-4.33686000,-0.00107653
-0.60571463,0.23068400,-1.73782000,-6.68983700,-0.00107653
-0.52571463,0.15378940,-1.26107300,-8.05856200,-0.00101501
-0.44571463,0.07689468,-0.83046260,-7.64333200,-0.00086122
-0.36571462,0.03075787,-0.44598910,-4.95201700,-0.00061516
-0.28571462,0.00000000,-0.12303150,0.30757870,-0.00024606
-0.20571462,0.01537894,0.10765260,8.18159400,0.00027682
-0.12571462,0.07689468,0.26144190,18.45472000,0.00098425
-0.04571462,0.18454720,0.33833660,30.71173000,0.00187623
0.03428538,0.32295760,0.33833660,44.46050000,0.00286048
0.11428538,0.47674700,0.30757870,59.10125000,0.00393701
0.19428538,0.61515740,0.23068400,74.15723000,0.00504429
0.27428538,0.64591530,0.15378940,89.25935000,0.00605930
0.35428539,0.52288380,0.09227362,104.25380000,0.00688976
0.43428539,0.29219980,0.03075787,119.09450000,0.00750492
0.51428539,0.06151574,0.00000000,133.82750000,0.00781250
0.59428539,-0.01537894,0.00000000,148.60670000,0.00778174
0.67428539,0.15378940,0.03075787,163.47810000,0.00741265
0.75428539,0.61515740,0.09227362,178.41100000,0.00670522
0.83428539,1.35334600,0.15378940,193.14410000,0.00572097
0.91428539,2.19918800,0.23068400,207.18500000,0.00455217
0.99428539,2.87586100,0.30757870,219.82650000,0.00335261
1.07428539,2.79896600,0.33833660,230.19190000,0.00215305
1.15428540,1.44562000,0.32295760,237.29700000,0.00113804
1.23428540,-1.29183100,0.23068400,240.23440000,0.00039985
1.31428540,-5.38262700,0.09227362,238.29660000,0.00003076
1.39428540,-10.54995000,-0.09227362,231.05310000,0.00009227
1.47428540,-16.45546000,-0.30757870,218.47320000,0.00061516
1.55428540,-22.77620000,-0.53826270,200.95660000,0.00153789
1.63428540,-29.28149000,-0.78432570,179.30300000,0.00282972
1.71428540,-36.01747000,-1.03038900,154.69670000,0.00427534
1.79428540,-43.26095000,-1.30720900,128.50640000,0.00578248
1.87428541,-51.87315000,-1.70706200,102.20840000,0.00698204
1.95428541,-62.71530000,-2.29146100,77.20226000,0.00768947
2.03428541,-76.26414000,-2.99889300,54.71825000,0.00790477
2.11428541,-92.70422000,-3.66018700,35.58686000,0.00787402
2.19428541,-111.91250000,-4.10617600,20.31557000,0.00787402
2.27428541,-133.47380000,-4.18307100,8.93516300,0.00815084
2.35428541,-156.78830000,-3.81397600,1.13804100,0.00888903
2.43428541,-181.11770000,-3.06040800,-3.69094500,0.01005782
2.51428541,-205.81630000,-2.13767200,-6.30536400,0.01134966
2.59428542,-230.34570000,-1.39948300,-7.62795300,0.01211860
2.67428542,-254.64440000,-1.56865100,-8.44303500,0.01125738
2.75428542,-278.78940000,-3.32185000,-9.19660400,0.00759720
2.83428542,-302.61130000,-6.88976300,-10.13472000,0.00070743
2.91428542,-325.92580000,-12.33391000,-11.21124000,-0.00947343
2.99428542,-348.50210000,-19.42360000,-12.28777000,-0.02257628
3.07428542,-370.03260000,-27.80512000,-13.07210000,-0.03804749
3.15428542,-390.19440000,-37.07861000,-13.34892000,-0.05514887
3.23428542,-408.67980000,-46.89037000,-12.96444000,-0.07332677
3.31428542,-425.21220000,-57.10199000,-11.90330000,-0.09221210
3.39428543,-439.59150000,-67.82111000,-10.41154000,-0.11202020
3.47428543,-451.87930000,-79.66290000,-8.79675100,-0.13358140
3.55428543,-462.16780000,-93.31938000,-7.21272100,-0.15800320
3.63428543,-470.38010000,-109.15970000,-5.76710100,-0.18599290
3.71428543,-476.39330000,-127.33760000,-4.49065000,-0.21788880
3.79428543,-480.06890000,-147.76080000,-3.38336600,-0.25375250
3.87428543,-481.25310000,-170.09100000,-2.41449300,-0.29315330
3.95428543,-479.85360000,-193.77460000,-1.53789400,-0.33519930
4.03428543,-475.85500000,-218.15020000,-0.70743110,-0.37875250
4.11428544,-469.33440000,-242.55660000,0.13841040,-0.42242860
4.19428544,-460.49150000,-266.40930000,0.95349410,-0.46478220
4.27428544,-449.69550000,-289.43160000,1.73782000,-0.50470600
4.35428544,-437.50000000,-311.50040000,2.47600900,-0.54118480
4.43428544,-424.41250000,-332.35420000,3.13730300,-0.57332680
4.51428544,-410.86360000,-351.76240000,3.69094500,-0.60039370
4.59428544,-397.14560000,-369.50970000,4.12155500,-0.62198570
4.67428544,-383.42760000,-385.39610000,4.38299700,-0.63794900
4.75428544,-369.69420000,-399.23720000,4.50602900,-0.64834520
4.83428545,-355.80710000,-410.89440000,4.47527100,-0.65348180
4.91428545,-341.56620000,-420.27560000,4.32148100,-0.65378930
4.99428545,-326.55630000,-427.30370000,4.12155500,-0.64972930
5.07428545,-310.56220000,-432.05580000,3.92162900,-0.64176300
5.15428545,-293.75310000,-434.63950000,3.78321800,-0.63041340
5.23428545,-276.52860000,-435.03930000,3.73708200,-0.61586490
5.31428545,-259.39650000,-433.22460000,3.82935500,-0.59827140
5.39428545,-242.86420000,-429.13390000,4.04466000,-0.57769440
5.47428545,-227.34680000,-422.70540000,4.39837600,-0.55410310
5.55428545,-213.01360000,-413.95480000,4.84436500,-0.52762060
5.63428546,-199.88000000,-402.95890000,5.36724900,-0.49840060
5.71428546,-187.66920000,-389.88680000,5.92089000,-0.46681230
5.79428546,-175.71970000,-374.96920000,6.47453200,-0.43328620
5.87428546,-163.41660000,-358.60600000,6.96665800,-0.39856050
5.95428546,-150.63670000,-341.38160000,7.36651000,-0.36361960
6.03428546,-137.45690000,-323.84960000,7.65871000,-0.32960140
6.11428546,-124.21570000,-306.54830000,7.81250000,-0.29749010
6.19428546,-111.25120000,-289.84680000,7.82787800,-0.26808560
6.27428546,-98.94807000,-273.96040000,7.72022600,-0.24181840
6.35428547,-87.58304000,-258.91980000,7.47416300,-0.21878080
6.43428547,-77.26378000,-244.57120000,7.13582600,-0.19860360
6.51428547,-67.92876000,-230.68400000,6.70521600,-0.18073330
6.59428547,-59.19353000,-216.78150000,6.22846900,-0.16406250
6.67428547,-50.67359000,-202.50980000,5.72096400,-0.14773010
6.75428547,-42.35359000,-187.99210000,5.19808000,-0.13161290
6.83428547,-34.37192000,-173.55130000,4.69057600,-0.11586490
6.91428547,-26.94390000,-159.61800000,4.16769200,-0.10103960
6.99428547,-20.36171000,-146.62280000,3.67556500,-0.08769070
7.07428548,-14.80992000,-134.93480000,3.16806100,-0.07637180
7.15428548,-10.42692000,-124.73850000,2.67593500,-0.06745202
7.23428548,-7.21272100,-116.01870000,2.16843000,-0.06086983
7.31428548,-5.04429100,-108.51380000,1.67630400,-0.05637918
7.39428548,-3.52177600,-101.60860000,1.19955700,-0.05308809
7.47428548,-2.33759800,-94.73425000,0.76894680,-0.05010458
7.55428548,-1.36872500,-87.75221000,0.39985230,-0.04709030
7.63428548,-0.61515740,-80.72403000,0.13841040,-0.04395300
7.71428548,-0.10765260,-73.88041000,0.01537894,-0.04075418
7.79428548,0.00000000,-67.48277000,0.03075787,-0.03777067
7.87428549,-0.35371550,-61.85408000,0.19992620,-0.03521777
7.95428549,-1.27645200,-57.14812000,0.50750490,-0.03331078
8.03428549,-2.73745100,-53.41105000,0.92273620,-0.03220350
8.11428549,-4.65981800,-50.53518000,1.43024100,-0.03177289
8.19428549,-6.82824800,-48.05917000,1.98388300,-0.03177289
8.27428549,-9.04281500,-45.56779000,2.50676700,-0.03183440
8.35428549,-11.19587000,-42.87647000,3.01427100,-0.03183440
8.43428549,-13.17975000,-39.93909000,3.44488200,-0.03171137
8.51428549,-14.91757000,-36.86331000,3.78321800,-0.03149606
8.59428550,-16.37857000,-33.77214000,4.02928100,-0.03125000
8.67428550,-17.57812000,-30.85015000,4.19845000,-0.03103469
8.75428550,-18.50086000,-28.22035000,4.27534400,-0.03091166
8.83428550,-19.22367000,-25.97502000,4.29072300,-0.03091166
8.91428550,-19.79269000,-24.06804000,4.25996500,-0.03100394
8.99428550,-20.26944000,-22.28408000,4.18307100,-0.03115773
9.07428550,-20.74619000,-20.39247000,4.10617600,-0.03125000
9.15428550,-21.31520000,-18.27018000,4.04466000,-0.03128076
9.23428550,-22.03802000,-15.87106000,3.98314500,-0.03131152
9.31428551,-22.97613000,-13.19513000,3.93700800,-0.03134227
9.39428551,-24.14493000,-10.30389000,3.90625000,-0.03140379
9.47428551,-25.51365000,-7.28961600,3.87549200,-0.03152682
9.55428551,-27.03617000,-4.22920700,3.82935500,-0.03168061
9.63428551,-28.65096000,-1.23031500,3.78321800,-0.03189592
9.71428551,-30.25037000,1.66092500,3.72170300,-0.03208046
9.79428551,-31.74212000,4.45989200,3.64480800,-0.03223425
9.87428551,-33.04933000,7.18196300,3.59867100,-0.03223425
9.95428551,-34.09510000,9.79638200,3.59867100,-0.03211122
10.03428551,-34.83329000,12.28777000,3.66018700,-0.03186516
10.11428552,-35.23314000,14.59461000,3.81397600,-0.03155758
10.19428552,-35.29466000,16.73228000,4.06003900,-0.03121924
10.27428552,-35.03321000,18.62389000,4.41375400,-0.03088091
10.35428552,-34.49495000,20.28482000,4.85974400,-0.03060408
10.43428552,-33.71063000,21.68430000,5.38262700,-0.03032726
10.51428552,-32.69562000,22.83772000,5.92089000,-0.03005044
10.59428552,-31.46530000,23.71432000,6.47453200,-0.02961983
10.67428552,-30.01968000,24.32948000,6.96665800,-0.02897392
10.75428552,-28.37414000,24.59092000,7.38188900,-0.02795891
10.83428553,-26.52866000,24.48326000,7.67408900,-0.02651329
10.91428553,-24.56016000,23.96038000,7.82787800,-0.02463706
10.99428553,-22.48400000,23.00689000,7.82787800,-0.02233022
11.07428553,-20.34633000,21.60740000,7.67408900,-0.01959277
11.15428553,-18.17790000,19.83883000,7.38188900,-0.01648622
11.23428553,-15.99409000,17.71653000,6.96665800,-0.01316437
11.31428553,-13.79491000,15.31742000,6.47453200,-0.00968873
11.39428553,-11.54958000,12.73376000,5.92089000,-0.00612082
11.47428553,-9.19660400,9.99630800,5.38262700,-0.00261442
11.55428553,-6.70521600,7.18196300,4.87512300,0.00076895
11.63428554,-4.10617600,4.30610200,4.42913300,0.00387549
