Time,Channel A,Channel B,Channel C,Channel D
(ns),(mV),(mV),(mV),(V)

-15.33913083,-0.03075787,-3.90625000,3.95238700,0.00784326
-15.25913082,-0.21530510,-3.78321800,4.15231300,0.00784326
-15.17913082,-0.58439960,-3.53715500,4.52140800,0.00787402
-15.09913082,-1.09190400,-3.18344000,5.02891200,0.00790477
-15.01913082,-1.67630400,-2.75283000,5.62869100,0.00790477
-14.93913082,-2.27608300,-2.27608300,6.22846900,0.00790477
-14.85913082,-2.86048200,-1.78395700,6.79749000,0.00790477
-14.77913082,-3.35260800,-1.26107300,7.28961600,0.00787402
-14.69913082,-3.70632400,-0.75356790,7.62795300,0.00784326
-14.61913082,-3.89087100,-0.24606300,7.81250000,0.00784326
-14.53913081,-3.90625000,0.24606300,7.82787800,0.00784326
-14.45913081,-3.75246000,0.75356790,7.67408900,0.00784326
-14.37913081,-3.44488200,1.26107300,7.38188900,0.00787402
-14.29913081,-3.02965000,1.78395700,6.96665800,0.00790477
-14.21913081,-2.52214600,2.27608300,6.47453200,0.00790477
-14.13913081,-1.96850400,2.75283000,5.92089000,0.00790477
-14.05913081,-1.43024100,3.18344000,5.36724900,0.00790477
-13.97913081,-0.92273620,3.53715500,4.85974400,0.00787402
-13.89913081,-0.47674700,3.79859700,4.39837600,0.00784326
-13.81913080,-0.13841040,3.92162900,4.06003900,0.00784326
-13.73913080,0.10765260,3.89087100,3.81397600,0.00784326
-13.65913080,0.23068400,3.69094500,3.70632400,0.00784326
-13.57913080,0.24606300,3.33722900,3.69094500,0.00787402
-13.49913080,0.18454720,2.86048200,3.76783900,0.00790477
-13.41913080,0.06151574,2.27608300,3.89087100,0.00790477
-13.33913080,-0.06151574,1.67630400,4.01390200,0.00790477
-13.25913080,-0.18454720,1.09190400,4.13693400,0.00790477
-13.17913080,-0.24606300,0.58439960,4.18307100,0.00787402
-13.09913080,-0.23068400,0.23068400,4.15231300,0.00784326
-13.01913079,-0.10765260,0.03075787,4.02928100,0.00784326
-12.93913079,0.13841040,0.01537894,3.78321800,0.00784326
-12.85913079,0.47674700,0.16916830,3.44488200,0.00784326
-12.77913079,0.92273620,0.49212600,3.01427100,0.00787402
-12.69913079,1.43024100,0.92273620,2.52214600,0.00790477
-12.61913079,1.96850400,1.43024100,1.98388300,0.00790477
-12.53913079,2.52214600,1.98388300,1.43024100,0.00790477
-12.45913079,3.01427100,2.50676700,0.92273620,0.00790477
-12.37913079,3.44488200,2.99889300,0.49212600,0.00787402
-12.29913078,3.73708200,3.42950300,0.18454720,0.00784326
-12.21913078,3.90625000,3.78321800,0.01537894,0.00784326
-12.13913078,3.90625000,4.04466000,0.01537894,0.00784326
-12.05913078,3.73708200,4.24458600,0.18454720,0.00784326
-11.97913078,3.44488200,4.36761800,0.49212600,0.00787402
-11.89913078,3.01427100,4.45989200,0.92273620,0.00790477
-11.81913078,2.52214600,4.49065000,1.43024100,0.00790477
-11.73913078,1.96850400,4.49065000,1.98388300,0.00790477
-11.65913078,1.43024100,4.44451300,2.50676700,0.00787402
-11.57913077,0.92273620,4.36761800,3.01427100,0.00787402
-11.49913077,0.49212600,4.22920700,3.44488200,0.00784326
-11.41913077,0.13841040,4.04466000,3.78321800,0.00784326
-11.33913077,-0.10765260,3.78321800,4.02928100,0.00787402
-11.25913077,-0.27682080,3.47564000,4.19845000,0.00793553
-11.17913077,-0.33833660,3.10654500,4.27534400,0.00805856
-11.09913077,-0.35371550,2.67593500,4.29072300,0.00821235
-11.01913077,-0.30757870,2.21456700,4.25996500,0.00836614
-10.93913077,-0.23068400,1.73782000,4.18307100,0.00851993
-10.85913077,-0.16916830,1.26107300,4.10617600,0.00858145
-10.77913076,-0.09227362,0.83046260,4.02928100,0.00855069
-10.69913076,-0.04613681,0.43061020,3.96776600,0.00839690
-10.61913076,-0.01537894,0.12303150,3.93700800,0.00805856
-10.53913076,0.00000000,-0.09227362,3.92162900,0.00756644
-10.45913076,0.01537894,-0.21530510,3.92162900,0.00688976
-10.37913076,0.00000000,-0.24606300,3.93700800,0.00602854
-10.29913076,0.00000000,-0.18454720,3.93700800,0.00501353
-10.21913076,0.00000000,-0.06151574,3.95238700,0.00396777
-10.13913076,0.00000000,0.06151574,3.95238700,0.00286048
-10.05913075,0.00000000,0.18454720,3.95238700,0.00184547
-9.97913075,0.00000000,0.24606300,3.93700800,0.00098425
-9.89913075,0.01537894,0.21530510,3.93700800,0.00036909
-9.81913075,0.00000000,0.09227362,3.92162900,0.00003076
-9.73913075,-0.01537894,-0.12303150,3.90625000,0.00003076
-9.65913075,-0.04613681,-0.43061020,3.89087100,0.00036909
-9.57913075,-0.09227362,-0.83046260,3.84473400,0.00098425
-9.49913075,-0.16916830,-1.26107300,3.78321800,0.00184547
-9.41913075,-0.23068400,-1.73782000,3.72170300,0.00286048
-9.33913074,-0.30757870,-2.21456700,3.64480800,0.00396777
-9.25913074,-0.33833660,-2.67593500,3.59867100,0.00501353
-9.17913074,-0.33833660,-3.10654500,3.59867100,0.00602854
-9.09913074,-0.26144190,-3.49101900,3.66018700,0.00688976
-9.01913074,-0.10765260,-3.79859700,3.81397600,0.00756644
-8.93913074,0.12303150,-4.02928100,4.04466000,0.00805856
-8.85913074,0.44598910,-4.18307100,4.36761800,0.00839690
-8.77913074,0.83046260,-4.27534400,4.76747000,0.00855069
-8.69913074,1.26107300,-4.29072300,5.21345900,0.00858145
-8.61913074,1.73782000,-4.25996500,5.69020700,0.00851993
-8.53913073,2.21456700,-4.18307100,6.16695300,0.00836614
-8.45913073,2.67593500,-4.10617600,6.61294300,0.00821235
-8.37913073,3.09116600,-4.02928100,7.04355200,0.00805856
-8.29913073,3.46026100,-3.96776600,7.39726800,0.00793553
-8.21913073,3.78321800,-3.93700800,7.70484700,0.00784326
-8.13913073,4.04466000,-3.92162900,7.96628900,0.00784326
-8.05913073,4.27534400,-3.92162900,8.16621500,0.00793553
-7.97913073,4.45989200,-3.93700800,8.30462600,0.00805856
-7.89913073,4.61368100,-3.93700800,8.39689900,0.00821235
-7.81913072,4.73671200,-3.95238700,8.44303500,0.00836614
-7.73913072,4.79822800,-3.95238700,8.44303500,0.00851993
-7.65913072,4.79822800,-3.95238700,8.39689900,0.00858145
-7.57913072,4.70595500,-3.93700800,8.30462600,0.00855069
-7.49913072,4.50602900,-3.92162900,8.16621500,0.00836614
-7.41913072,4.15231300,-3.92162900,7.96628900,0.00805856
-7.33913072,3.64480800,-3.92162900,7.70484700,0.00759720
-7.25913072,2.98351400,-3.92162900,7.39726800,0.00698204
-7.17913072,2.16843000,-3.93700800,7.04355200,0.00621309
-7.09913072,1.24569400,-3.95238700,6.61294300,0.00535187
-7.01913071,0.24606300,-3.95238700,6.16695300,0.00442913
-6.93913071,-0.78432570,-3.95238700,5.69020700,0.00347564
-6.85913071,-1.75319900,-3.93700800,5.21345900,0.00255290
-6.77913071,-2.61441900,-3.93700800,4.76747000,0.00166093
-6.69913071,-3.30647100,-3.92162900,4.36761800,0.00092274
-6.61913071,-3.78321800,-3.92162900,4.04466000,0.00027682
-6.53913071,-3.99852300,-3.93700800,3.81397600,-0.00024606
-6.45913071,-3.96776600,-3.96776600,3.66018700,-0.00061516
-6.37913071,-3.67556500,-4.02928100,3.59867100,-0.00086122
-6.29913070,-3.19881900,-4.10617600,3.59867100,-0.00101501
-6.21913070,-2.58366100,-4.18307100,3.64480800,-0.00107653
-6.13913070,-1.90698800,-4.25996500,3.72170300,-0.00107653
-6.05913070,-1.24569400,-4.29072300,3.78321800,-0.00101501
-5.97913070,-0.69205210,-4.27534400,3.84473400,-0.00086122
-5.89913070,-0.27682080,-4.18307100,3.89087100,-0.00061516
-5.81913070,-0.04613681,-4.02928100,3.90625000,-0.00024606
-5.73913070,-0.01537894,-3.79859700,3.92162900,0.00027682
-5.65913070,-0.16916830,-3.49101900,3.93700800,0.00092274
-5.57913069,-0.47674700,-3.10654500,3.93700800,0.00166093
-5.49913069,-0.92273620,-2.67593500,3.95238700,0.00255290
-5.41913069,-1.43024100,-2.21456700,3.95238700,0.00347564
-5.33913069,-1.98388300,-1.73782000,3.95238700,0.00442913
-5.25913069,-2.50676700,-1.26107300,3.95238700,0.00535187
-5.17913069,-2.99889300,-0.83046260,3.93700800,0.00621309
-5.09913069,-3.42950300,-0.44598910,3.92162900,0.00698204
-5.01913069,-3.78321800,-0.12303150,3.92162900,0.00759720
-4.93913069,-4.04466000,0.10765260,3.92162900,0.00805856
-4.85913069,-4.24458600,0.26144190,3.92162900,0.00836614
-4.77913068,-4.36761800,0.33833660,3.93700800,0.00855069
-4.69913068,-4.45989200,0.33833660,3.95238700,0.00858145
-4.61913068,-4.49065000,0.30757870,3.95238700,0.00851993
-4.53913068,-4.49065000,0.23068400,3.95238700,0.00836614
-4.45913068,-4.44451300,0.16916830,3.95238700,0.00821235
-4.37913068,-4.36761800,0.09227362,3.93700800,0.00805856
-4.29913068,-4.22920700,0.04613681,3.92162900,0.00793553
-4.21913068,-4.04466000,0.01537894,3.92162900,0.00784326
-4.13913068,-3.78321800,0.00000000,3.92162900,0.00784326
-4.05913067,-3.47564000,-0.01537894,3.92162900,0.00793553
-3.97913067,-3.10654500,0.00000000,3.93700800,0.00805856
-3.89913067,-2.67593500,0.00000000,3.95238700,0.00821235
-3.81913067,-2.21456700,0.00000000,3.95238700,0.00836614
-3.73913067,-1.73782000,0.00000000,3.95238700,0.00851993
-3.65913067,-1.26107300,0.00000000,3.95238700,0.00858145
-3.57913067,-0.83046260,0.00000000,3.93700800,0.00855069
-3.49913067,-0.44598910,-0.01537894,3.92162900,0.00836614
-3.41913067,-0.12303150,0.00000000,3.92162900,0.00805856
-3.33913066,0.10765260,0.01537894,3.92162900,0.00759720
-3.25913066,0.26144190,0.04613681,3.92162900,0.00698204
-3.17913066,0.33833660,0.09227362,3.93700800,0.00621309
-3.09913066,0.33833660,0.16916830,3.95238700,0.00535187
-3.01913066,0.30757870,0.23068400,3.95238700,0.00442913
-2.93913066,0.23068400,0.30757870,3.95238700,0.00347564
-2.85913066,0.16916830,0.33833660,3.95238700,0.00252215
-2.77913066,0.09227362,0.33833660,3.93700800,0.00166093
-2.69913066,0.04613681,0.26144190,3.92162900,0.00089198
-2.61913066,0.01537894,0.10765260,3.92162900,0.00024606
-2.53913065,0.00000000,-0.12303150,3.92162900,-0.00021531
-2.45913065,-0.01537894,-0.44598910,3.92162900,-0.00052288
-2.37913065,0.00000000,-0.83046260,3.93700800,-0.00067667
-2.29913065,0.00000000,-1.26107300,3.95238700,-0.00067667
-2.21913065,0.00000000,-1.73782000,3.95238700,-0.00061516
-2.13913065,0.00000000,-2.21456700,3.95238700,-0.00046137
-2.05913065,0.00000000,-2.67593500,3.95238700,-0.00033834
-1.97913065,0.00000000,-3.10654500,3.93700800,-0.00018455
-1.89913065,0.00000000,-3.49101900,3.93700800,-0.00009227
-1.81913064,0.00000000,-3.79859700,3.92162900,-0.00003076
-1.73913064,0.00000000,-4.02928100,3.90625000,0.00000000
-1.65913064,0.00000000,-4.18307100,3.89087100,0.00003076
-1.57913064,0.00000000,-4.27534400,3.84473400,0.00000000
-1.49913064,0.00000000,-4.29072300,3.78321800,0.00000000
-1.41913064,0.00000000,-4.25996500,3.72170300,0.00000000
-1.33913064,0.00000000,-4.18307100,3.64480800,0.00000000
-1.25913064,0.00000000,-4.10617600,3.69094500,0.00000000
-1.17913064,0.00000000,-4.02928100,3.89087100,0.00000000
-1.09913063,-0.01537894,-3.96776600,4.10617600,0.00003076
-1.01913063,0.00000000,-3.93700800,4.09079700,0.00000000
-0.93913063,0.01537894,-3.92162900,3.59867100,-0.00003076
-0.85913063,0.04613681,-3.92162900,2.38373500,-0.00009227
-0.77913063,0.09227362,-3.93700800,0.39985230,-0.00018455
-0.69913063,0.16916830,-3.93700800,-2.26070400,-0.00033834
-0.61913063,0.23068400,-3.95238700,-5.19808000,-0.00046137
-0.53913063,0.30757870,-3.95238700,-7.82787800,-0.00061516
-0.45913063,0.33833660,-3.93700800,-9.21198300,-0.00067667
-0.37913063,0.32295760,-3.93700800,-8.35076200,-0.00067667
-0.29913062,0.24606300,-3.92162900,-4.52140800,-0.00052288
-0.21913062,0.09227362,-3.92162900,2.79896600,-0.00021531
-0.13913062,-0.10765260,-3.93700800,13.81028000,0.00024606
-0.05913062,-0.35371550,-3.96776600,28.34338000,0.00089198
0.02086938,-0.64591530,-4.02928100,45.92150000,0.00166093
0.10086938,-0.93811510,-4.10617600,65.77571000,0.00252215
0.18086938,-1.26107300,-4.18307100,86.96788000,0.00347564
0.26086938,-1.59940900,-4.25996500,108.48300000,0.00442913
0.34086938,-2.04539800,-4.29072300,129.36760000,0.00535187
0.42086939,-2.61441900,-4.27534400,148.85270000,0.00621309
0.50086939,-3.22957700,-4.19845000,166.36930000,0.00698204
0.58086939,-3.75246000,-4.02928100,181.57910000,0.00759720
0.66086939,-4.01390200,-3.78321800,194.37440000,0.00805856
0.74086939,-3.90625000,-3.44488200,204.84740000,0.00836614
0.82086939,-3.36798700,-3.01427100,213.16740000,0.00855069
0.90086939,-2.44525100,-2.50676700,219.51890000,0.00858145
0.98086939,-1.33796700,-1.98388300,223.99420000,0.00851993
1.06086939,-0.39985230,-1.43024100,226.57790000,0.00836614
1.14086939,-0.29219980,-0.93811510,227.08540000,0.00821235
1.22086940,-1.59940900,-0.52288380,225.23990000,0.00799705
1.30086940,-4.50602900,-0.21530510,220.64160000,0.00787402
1.38086940,-8.99667800,-0.04613681,212.96750000,0.00781250
1.46086940,-14.80992000,0.01537894,201.95620000,0.00790477
1.54086940,-21.57665000,-0.01537894,187.56150000,0.00818159
1.62086940,-28.91240000,-0.10765260,169.98340000,0.00861220
1.70086940,-36.55573000,-0.27682080,149.71390000,0.00919661
1.78086940,-44.47588000,-0.49212600,127.49140000,0.00981176
1.86086940,-52.94968000,-0.75356790,104.28460000,0.01033465
1.94086941,-62.79219000,-1.21493600,81.17003000,0.01051919
2.02086941,-74.91080000,-1.92236700,59.27042000,0.01011934
2.10086941,-89.78223000,-2.78358700,39.55462000,0.00928888
2.18086941,-107.63720000,-3.59867100,22.80696000,0.00830463
2.26086941,-128.39870000,-4.15231300,9.45804600,0.00750492
2.34086941,-151.65170000,-4.24458600,-0.33833660,0.00722810
2.42086941,-176.78090000,-3.79859700,-6.81286900,0.00768947
2.50086941,-203.03270000,-2.87586100,-10.47305000,0.00876599
2.58086941,-229.63830000,-1.73782000,-11.98019000,0.01008858
2.66086942,-255.93620000,-0.87659940,-12.21087000,0.01088829
2.74086942,-281.69600000,-1.15342000,-11.94943000,0.00971949
2.82086942,-306.79440000,-3.39874500,-11.65723000,0.00522884
2.90086942,-330.95470000,-8.02780400,-11.56496000,-0.00319882
2.98086942,-353.86930000,-15.14825000,-11.67261000,-0.01577879
3.06086942,-375.27680000,-24.62168000,-11.84178000,-0.03220350
3.14086942,-394.90030000,-36.03284000,-11.84178000,-0.05182702
3.22086942,-412.47850000,-48.90501000,-11.44193000,-0.07384966
3.30086942,-427.82660000,-62.76144000,-10.50381000,-0.09744094
3.38086942,-440.82180000,-77.23302000,-9.01205700,-0.12207800
3.46086943,-451.46410000,-92.24286000,-7.18196300,-0.14757630
3.54086943,-459.95320000,-108.17540000,-5.29035400,-0.17458170
3.62086943,-466.50460000,-125.56900000,-3.47564000,-0.20392470
3.70086943,-471.17980000,-144.63890000,-1.87623000,-0.23609740
3.78086943,-473.96340000,-165.46200000,-0.55364170,-0.27140750
3.86086943,-474.74770000,-187.93060000,0.47674700,-0.30985480
3.94086943,-473.44060000,-211.73720000,1.19955700,-0.35103960
4.02086943,-469.88800000,-236.35890000,1.69168300,-0.39419290
4.10086943,-464.07480000,-261.22660000,1.98388300,-0.43817670
4.18086944,-456.00080000,-285.67910000,2.18380900,-0.48172980
4.26086944,-445.77380000,-309.19350000,2.32221900,-0.52340670
4.34086944,-433.74750000,-331.44680000,2.47600900,-0.56203860
4.42086944,-420.39860000,-352.28530000,2.70669300,-0.59661050
4.50086944,-406.23460000,-371.37060000,3.07578700,-0.62607650
4.58086944,-391.70150000,-388.45660000,3.59867100,-0.64960630
4.66086944,-377.12230000,-403.28180000,4.27534400,-0.66667690
4.74086944,-362.68150000,-415.67720000,5.09042800,-0.67713460
4.82086944,-348.42520000,-425.51980000,6.01316400,-0.68116380
4.90086945,-334.23040000,-432.74790000,6.98203700,-0.67916460
4.98086945,-319.88190000,-437.37700000,7.96628900,-0.67184420
5.06086945,-304.94890000,-439.48390000,8.91978400,-0.66003320
5.14086945,-289.15480000,-439.33010000,9.79638200,-0.64459280
5.22086945,-272.69930000,-437.16160000,10.56533000,-0.62644560
5.30086945,-255.95160000,-433.11700000,11.18049000,-0.60617620
5.38086945,-239.43470000,-427.22680000,11.61110000,-0.58421500
5.46086945,-223.65590000,-419.55270000,11.87254000,-0.56074680
5.54086945,-209.03050000,-410.04860000,11.93405000,-0.53586370
5.62086945,-195.75850000,-398.69890000,11.82640000,-0.50947340
5.70086946,-183.80910000,-385.54990000,11.58034000,-0.48154530
5.78086946,-172.89000000,-370.74000000,11.19587000,-0.45214070
5.86086946,-162.29390000,-354.39220000,10.71912000,-0.42135210
5.94086946,-151.37490000,-336.84480000,10.18086000,-0.38948700
6.02086946,-139.91760000,-318.69770000,9.56569900,-0.35743730
6.10086946,-127.99890000,-300.55050000,8.91978400,-0.32606420
6.18086946,-115.86490000,-282.98780000,8.21235200,-0.29638290
6.26086946,-103.86930000,-266.44010000,7.45878400,-0.26913140
6.34086946,-92.36589000,-251.18410000,6.64370100,-0.24489420
6.42086947,-81.63139000,-237.25090000,5.76710100,-0.22373280
6.50086947,-71.83501000,-224.45560000,4.84436500,-0.20540110
6.58086947,-62.91523000,-212.47540000,3.89087100,-0.18937620
6.66086947,-54.51833000,-200.66440000,2.93737700,-0.17448940
6.74086947,-46.29060000,-188.54570000,2.03002000,-0.15978710
6.82086947,-38.21666000,-176.08880000,1.23031500,-0.14505410
6.90086947,-30.40416000,-163.49350000,0.58439960,-0.13047490
6.98086947,-23.03765000,-151.11340000,0.13841040,-0.11644930
7.06086947,-16.37857000,-139.34850000,-0.07689468,-0.10356180
7.14086948,-10.62684000,-128.56790000,-0.06151574,-0.09230438
7.22086948,-5.87475300,-118.97150000,0.16916830,-0.08301550
7.30086948,-2.16843000,-110.62070000,0.58439960,-0.07581816
7.38086948,0.58439960,-103.33110000,1.12266200,-0.07040478
7.46086948,2.70669300,-96.56434000,1.73782000,-0.06603716
7.54086948,4.45989200,-89.82837000,2.35297700,-0.06188484
7.62086948,5.92089000,-83.03088000,2.92199800,-0.05770177
7.70086948,7.02817400,-76.26414000,3.39874500,-0.05342643
7.78086948,7.70484700,-69.74347000,3.76783900,-0.04915108
7.86086948,7.82787800,-63.79183000,4.04466000,-0.04506028
7.94086949,7.27423700,-58.62450000,4.21382900,-0.04143086
8.02086949,6.01316400,-54.44143000,4.29072300,-0.03844734
8.10086949,4.07541800,-51.24261000,4.29072300,-0.03620202
8.18086949,1.58403000,-48.85888000,4.25996500,-0.03466412
8.26086949,-1.19955700,-46.85962000,4.18307100,-0.03355684
8.34086949,-4.01390200,-44.79884000,4.10617600,-0.03266486
8.42086949,-6.67445900,-42.46124000,4.02928100,-0.03192667
8.50086949,-9.02743600,-39.78531000,3.96776600,-0.03143455
8.58086949,-10.96518000,-36.83255000,3.93700800,-0.03128076
8.66086950,-12.44156000,-33.75676000,3.92162900,-0.03161909
8.74086950,-13.47195000,-30.69636000,3.92162900,-0.03248031
8.82086950,-14.07173000,-27.82050000,3.93700800,-0.03395669
8.90086950,-14.34855000,-25.20608000,3.93700800,-0.03595595
8.98086950,-14.41006000,-22.86848000,3.95238700,-0.03829355
9.06086950,-14.34855000,-20.60777000,3.95238700,-0.04075418
9.14086950,-14.28703000,-18.22404000,3.95238700,-0.04299951
9.22086950,-14.37930000,-15.60962000,3.93700800,-0.04484498
9.30086950,-14.68688000,-12.70300000,3.92162900,-0.04616757
9.38086951,-15.28666000,-9.51956200,3.92162900,-0.04690576
9.46086951,-16.16326000,-6.12081600,3.92162900,-0.04709030
9.54086951,-17.30130000,-2.59904000,3.92162900,-0.04669045
9.62086951,-18.63927000,0.96887300,3.93700800,-0.04585999
9.70086951,-20.08489000,4.49065000,3.95238700,-0.04462967
9.78086951,-21.56127000,7.88939400,3.95238700,-0.04312254
9.86086951,-22.99151000,11.16511000,3.95238700,-0.04133858
9.94086951,-24.29872000,14.30241000,3.95238700,-0.03933932
10.02086951,-25.45214000,17.23979000,3.93700800,-0.03718627
10.10086951,-26.40563000,19.96186000,3.92162900,-0.03491019
10.18086952,-27.14382000,22.42249000,3.92162900,-0.03257259
10.26086952,-27.71284000,24.57554000,3.92162900,-0.03020423
10.34086952,-28.12807000,26.42101000,3.92162900,-0.02783588
10.42086952,-28.38951000,27.94353000,3.93700800,-0.02552903
10.50086952,-28.51255000,29.14308000,3.95238700,-0.02322219
10.58086952,-28.49717000,30.01968000,3.95238700,-0.02091535
10.66086952,-28.29724000,30.55795000,3.95238700,-0.01860851
10.74086952,-27.83587000,30.74249000,3.95238700,-0.01624016
10.82086952,-27.05155000,30.46567000,3.93700800,-0.01381029
10.90086953,-25.92889000,29.69673000,3.92162900,-0.01138041
10.98086953,-24.42175000,28.34338000,3.92162900,-0.00898130
11.06086953,-22.56090000,26.42101000,3.92162900,-0.00673597
11.14086953,-20.34633000,23.89887000,3.92162900,-0.00464444
11.22086953,-17.82419000,20.83846000,3.93700800,-0.00276821
11.30086953,-15.08674000,17.34744000,3.95238700,-0.00107653
11.38086953,-12.19550000,13.51808000,3.95238700,0.00039985
11.46086953,-9.19660400,9.48880400,3.95238700,0.00175320
11.54086953,-6.15157400,5.41338600,3.95238700,0.00310655
11.62086953,-3.12192400,1.36872500,3.93700800,0.00445989
11.70086954,-0.16916830,-2.50676700,3.92162900,0.00584400
