Time,Channel A,Channel B,Channel C,Channel D
(ns),(mV),(mV),(mV),(V)

-15.27999983,3.79859700,-7.82787800,4.04466000,0.00805856
-15.19999982,3.52177600,-7.72022600,4.24458600,0.00836614
-15.11999982,3.19881900,-7.47416300,4.36761800,0.00855069
-15.03999982,2.84510300,-7.13582600,4.45989200,0.00858145
-14.95999982,2.44525100,-6.70521600,4.49065000,0.00851993
-14.87999982,2.04539800,-6.22846900,4.49065000,0.00836614
-14.79999982,1.61478800,-5.72096400,4.45989200,0.00821235
-14.71999982,1.16879900,-5.21345900,4.36761800,0.00805856
-14.63999982,0.70743110,-4.69057600,4.24458600,0.00793553
-14.55999982,0.24606300,-4.18307100,4.04466000,0.00787402
-14.47999981,-0.24606300,-3.66018700,3.78321800,0.00784326
-14.39999981,-0.75356790,-3.12192400,3.42950300,0.00784326
-14.31999981,-1.26107300,-2.56828200,2.99889300,0.00787402
-14.23999981,-1.76857800,-1.99926200,2.50676700,0.00787402
-14.15999981,-2.27608300,-1.43024100,1.98388300,0.00790477
-14.07999981,-2.75283000,-0.89197830,1.43024100,0.00790477
-13.99999981,-3.18344000,-0.41523130,0.92273620,0.00790477
-13.91999981,-3.53715500,-0.06151574,0.49212600,0.00787402
-13.83999981,-3.79859700,0.12303150,0.18454720,0.00784326
-13.75999980,-3.92162900,0.10765260,0.01537894,0.00784326
-13.67999980,-3.89087100,-0.16916830,0.01537894,0.00784326
-13.59999980,-3.69094500,-0.67667320,0.18454720,0.00784326
-13.51999980,-3.33722900,-1.43024100,0.49212600,0.00787402
-13.43999980,-2.86048200,-2.35297700,0.92273620,0.00790477
-13.35999980,-2.27608300,-3.41412400,1.43024100,0.00790477
-13.27999980,-1.67630400,-4.49065000,1.98388300,0.00790477
-13.19999980,-1.09190400,-5.53641700,2.50676700,0.00790477
-13.11999980,-0.58439960,-6.44377400,2.99889300,0.00787402
-13.03999980,-0.23068400,-7.18196300,3.42950300,0.00784326
-12.95999979,-0.03075787,-7.67408900,3.78321800,0.00784326
-12.87999979,-0.01537894,-7.95091000,4.04466000,0.00784326
-12.79999979,-0.16916830,-7.98166800,4.24458600,0.00784326
-12.71999979,-0.49212600,-7.81250000,4.36761800,0.00787402
-12.63999979,-0.92273620,-7.47416300,4.45989200,0.00790477
-12.55999979,-1.43024100,-7.01279500,4.49065000,0.00790477
-12.47999979,-1.98388300,-6.47453200,4.49065000,0.00790477
-12.39999979,-2.50676700,-5.89013200,4.45989200,0.00790477
-12.31999979,-3.01427100,-5.30573300,4.36761800,0.00787402
-12.23999978,-3.44488200,-4.72133400,4.24458600,0.00784326
-12.15999978,-3.78321800,-4.18307100,4.04466000,0.00784326
-12.07999978,-4.02928100,-3.66018700,3.78321800,0.00784326
-11.99999978,-4.19845000,-3.16806100,3.42950300,0.00784326
-11.91999978,-4.27534400,-2.66055600,2.99889300,0.00787402
-11.83999978,-4.29072300,-2.16843000,2.50676700,0.00790477
-11.75999978,-4.25996500,-1.67630400,1.98388300,0.00790477
-11.67999978,-4.18307100,-1.19955700,1.43024100,0.00790477
-11.59999978,-4.10617600,-0.76894680,0.92273620,0.00787402
-11.51999977,-4.02928100,-0.39985230,0.49212600,0.00787402
-11.43999977,-3.96776600,-0.13841040,0.18454720,0.00784326
-11.35999977,-3.92162900,-0.01537894,0.01537894,0.00784326
-11.27999977,-3.92162900,-0.03075787,0.01537894,0.00787402
-11.19999977,-3.96776600,-0.19992620,0.18454720,0.00793553
-11.11999977,-4.02928100,-0.50750490,0.49212600,0.00805856
-11.03999977,-4.10617600,-0.92273620,0.92273620,0.00821235
-10.95999977,-4.18307100,-1.43024100,1.43024100,0.00836614
-10.87999977,-4.25996500,-1.98388300,1.98388300,0.00851993
-10.79999977,-4.29072300,-2.50676700,2.50676700,0.00858145
-10.71999976,-4.27534400,-3.01427100,3.01427100,0.00855069
-10.63999976,-4.18307100,-3.44488200,3.44488200,0.00836614
-10.55999976,-4.02928100,-3.78321800,3.78321800,0.00805856
-10.47999976,-3.79859700,-4.02928100,4.02928100,0.00759720
-10.39999976,-3.49101900,-4.19845000,4.19845000,0.00698204
-10.31999976,-3.10654500,-4.27534400,4.27534400,0.00621309
-10.23999976,-2.67593500,-4.29072300,4.29072300,0.00535187
-10.15999976,-2.21456700,-4.25996500,4.25996500,0.00442913
-10.07999976,-1.73782000,-4.18307100,4.18307100,0.00347564
-9.99999975,-1.26107300,-4.10617600,4.10617600,0.00255290
-9.91999975,-0.83046260,-4.02928100,4.04466000,0.00166093
-9.83999975,-0.44598910,-3.96776600,3.98314500,0.00092274
-9.75999975,-0.12303150,-3.92162900,3.93700800,0.00027682
-9.67999975,0.10765260,-3.92162900,3.90625000,-0.00024606
-9.59999975,0.26144190,-3.96776600,3.87549200,-0.00061516
-9.51999975,0.33833660,-4.02928100,3.82935500,-0.00086122
-9.43999975,0.33833660,-4.10617600,3.78321800,-0.00101501
-9.35999975,0.30757870,-4.18307100,3.72170300,-0.00107653
-9.27999974,0.23068400,-4.25996500,3.64480800,-0.00107653
-9.19999974,0.15378940,-4.29072300,3.59867100,-0.00101501
-9.11999974,0.09227362,-4.27534400,3.59867100,-0.00086122
-9.03999974,0.03075787,-4.19845000,3.66018700,-0.00061516
-8.95999974,0.00000000,-4.02928100,3.81397600,-0.00024606
-8.87999974,0.00000000,-3.78321800,4.06003900,0.00027682
-8.79999974,0.03075787,-3.44488200,4.41375400,0.00092274
-8.71999974,0.09227362,-3.01427100,4.85974400,0.00166093
-8.63999974,0.15378940,-2.50676700,5.38262700,0.00255290
-8.55999974,0.23068400,-1.98388300,5.92089000,0.00347564
-8.47999973,0.30757870,-1.43024100,6.47453200,0.00442913
-8.39999973,0.33833660,-0.92273620,6.96665800,0.00535187
-8.31999973,0.33833660,-0.49212600,7.38188900,0.00621309
-8.23999973,0.26144190,-0.18454720,7.67408900,0.00698204
-8.15999973,0.10765260,-0.01537894,7.82787800,0.00759720
-8.07999973,-0.12303150,-0.01537894,7.82787800,0.00805856
-7.99999973,-0.44598910,-0.18454720,7.67408900,0.00836614
-7.91999973,-0.83046260,-0.49212600,7.38188900,0.00855069
-7.83999973,-1.26107300,-0.92273620,6.96665800,0.00858145
-7.75999972,-1.73782000,-1.43024100,6.47453200,0.00851993
-7.67999972,-2.21456700,-1.98388300,5.92089000,0.00836614
-7.59999972,-2.67593500,-2.50676700,5.36724900,0.00821235
-7.51999972,-3.10654500,-3.01427100,4.85974400,0.00805856
-7.43999972,-3.47564000,-3.44488200,4.39837600,0.00793553
-7.35999972,-3.78321800,-3.78321800,4.06003900,0.00787402
-7.27999972,-4.04466000,-4.02928100,3.81397600,0.00784326
-7.19999972,-4.22920700,-4.19845000,3.70632400,0.00784326
-7.11999972,-4.36761800,-4.27534400,3.69094500,0.00787402
-7.03999972,-4.44451300,-4.29072300,3.76783900,0.00787402
-6.95999971,-4.49065000,-4.25996500,3.89087100,0.00790477
-6.87999971,-4.49065000,-4.18307100,4.01390200,0.00790477
-6.79999971,-4.44451300,-4.10617600,4.12155500,0.00790477
-6.71999971,-4.36761800,-4.02928100,4.18307100,0.00787402
-6.63999971,-4.22920700,-3.96776600,4.15231300,0.00784326
-6.55999971,-4.04466000,-3.93700800,4.01390200,0.00784326
-6.47999971,-3.78321800,-3.92162900,3.79859700,0.00784326
-6.39999971,-3.47564000,-3.92162900,3.49101900,0.00784326
-6.31999971,-3.10654500,-3.93700800,3.10654500,0.00787402
-6.23999970,-2.67593500,-3.93700800,2.67593500,0.00790477
-6.15999970,-2.21456700,-3.95238700,2.21456700,0.00790477
-6.07999970,-1.73782000,-3.95238700,1.73782000,0.00790477
-5.99999970,-1.26107300,-3.93700800,1.26107300,0.00790477
-5.91999970,-0.83046260,-3.93700800,0.83046260,0.00787402
-5.83999970,-0.44598910,-3.92162900,0.44598910,0.00784326
-5.75999970,-0.12303150,-3.92162900,0.12303150,0.00784326
-5.67999970,0.10765260,-3.93700800,-0.10765260,0.00784326
-5.59999970,0.26144190,-3.96776600,-0.26144190,0.00784326
-5.51999969,0.33833660,-4.02928100,-0.33833660,0.00787402
-5.43999969,0.33833660,-4.10617600,-0.33833660,0.00790477
-5.35999969,0.30757870,-4.18307100,-0.30757870,0.00790477
-5.27999969,0.23068400,-4.25996500,-0.23068400,0.00790477
-5.19999969,0.16916830,-4.29072300,-0.15378940,0.00790477
-5.11999969,0.09227362,-4.27534400,-0.07689468,0.00787402
-5.03999969,0.04613681,-4.18307100,-0.03075787,0.00784326
-4.95999969,0.01537894,-4.02928100,0.00000000,0.00784326
-4.87999969,0.00000000,-3.79859700,-0.01537894,0.00784326
-4.79999969,-0.01537894,-3.49101900,-0.07689468,0.00784326
-4.71999968,0.00000000,-3.10654500,-0.18454720,0.00787402
-4.63999968,0.00000000,-2.67593500,-0.32295760,0.00790477
-4.55999968,0.00000000,-2.21456700,-0.47674700,0.00790477
-4.47999968,0.00000000,-1.73782000,-0.61515740,0.00790477
-4.39999968,0.00000000,-1.26107300,-0.69205210,0.00790477
-4.31999968,0.00000000,-0.83046260,-0.67667320,0.00787402
-4.23999968,0.00000000,-0.44598910,-0.53826270,0.00784326
-4.15999968,0.00000000,-0.12303150,-0.23068400,0.00784326
-4.07999968,0.00000000,0.10765260,0.27682080,0.00784326
-3.99999967,0.00000000,0.26144190,0.96887300,0.00784326
-3.91999967,0.00000000,0.33833660,1.84547200,0.00787402
-3.83999967,0.00000000,0.33833660,2.86048200,0.00790477
-3.75999967,0.00000000,0.30757870,3.95238700,0.00790477
-3.67999967,0.00000000,0.23068400,5.04429100,0.00790477
-3.59999967,0.00000000,0.15378940,6.04392200,0.00790477
-3.51999967,0.00000000,0.09227362,6.88976300,0.00787402
-3.43999967,-0.01537894,0.03075787,7.50492100,0.00784326
-3.35999967,0.00000000,0.00000000,7.81250000,0.00784326
-3.27999966,0.01537894,0.00000000,7.78174200,0.00784326
-3.19999966,0.04613681,0.03075787,7.39726800,0.00784326
-3.11999966,0.09227362,0.09227362,6.68983700,0.00787402
-3.03999966,0.16916830,0.15378940,5.72096400,0.00790477
-2.95999966,0.23068400,0.23068400,4.56754400,0.00790477
-2.87999966,0.30757870,0.30757870,3.33722900,0.00790477
-2.79999966,0.35371550,0.35371550,2.16843000,0.00790477
-2.71999966,0.33833660,0.33833660,1.16879900,0.00787402
-2.63999966,0.27682080,0.27682080,0.44598910,0.00784326
-2.55999966,0.10765260,0.10765260,0.06151574,0.00784326
-2.47999965,-0.13841040,-0.13841040,0.04613681,0.00784326
-2.39999965,-0.49212600,-0.49212600,0.38447340,0.00784326
-2.31999965,-0.92273620,-0.92273620,1.07652500,0.00787402
-2.23999965,-1.43024100,-1.43024100,2.01464100,0.00790477
-2.15999965,-1.96850400,-1.96850400,3.10654500,0.00790477
-2.07999965,-2.52214600,-2.52214600,4.25996500,0.00790477
-1.99999965,-3.01427100,-3.02965000,5.38262700,0.00790477
-1.91999965,-3.44488200,-3.44488200,6.38225800,0.00787402
-1.83999965,-3.73708200,-3.75246000,7.16658400,0.00784326
-1.75999964,-3.90625000,-3.90625000,7.68946800,0.00784326
-1.67999964,-3.90625000,-3.89087100,7.92015200,0.00784326
-1.59999964,-3.73708200,-3.70632400,7.82787800,0.00784326
-1.51999964,-3.44488200,-3.35260800,7.44340500,0.00787402
-1.43999964,-3.01427100,-2.86048200,6.82824800,0.00790477
-1.35999964,-2.52214600,-2.27608300,6.05930100,0.00790477
-1.27999964,-1.96850400,-1.67630400,5.24421700,0.00790477
-1.19999964,-1.43024100,-1.09190400,4.62906000,0.00790477
-1.11999964,-0.92273620,-0.58439960,4.33686000,0.00787402
-1.03999963,-0.49212600,-0.21530510,4.25996500,0.00784326
-0.95999963,-0.13841040,-0.03075787,4.12155500,0.00784326
-0.87999963,0.10765260,-0.03075787,3.59867100,0.00784326
-0.79999963,0.27682080,-0.21530510,2.39911400,0.00784326
-0.71999963,0.33833660,-0.58439960,0.38447340,0.00787402
-0.63999963,0.35371550,-1.09190400,-2.33759800,0.00790477
-0.55999963,0.30757870,-1.67630400,-5.35187000,0.00790477
-0.47999963,0.23068400,-2.27608300,-7.88939400,0.00790477
-0.39999963,0.15378940,-2.86048200,-8.88902600,0.00790477
-0.31999963,0.06151574,-3.35260800,-7.12044700,0.00787402
-0.23999962,0.00000000,-3.70632400,-1.52251500,0.00784326
-0.15999962,-0.01537894,-3.89087100,8.68909800,0.00784326
-0.07999962,0.04613681,-3.89087100,23.96038000,0.00784326
0.00000038,0.19992620,-3.70632400,44.21444000,0.00784326
0.08000038,0.46136810,-3.35260800,68.85149000,0.00787402
0.16000038,0.81508360,-2.86048200,96.84116000,0.00790477
0.24000038,1.18417800,-2.27608300,126.67630000,0.00790477
0.32000038,1.52251500,-1.67630400,156.68060000,0.00790477
0.40000038,1.64554600,-1.09190400,185.05470000,0.00787402
0.48000039,1.44562000,-0.58439960,210.19930000,0.00787402
0.56000039,0.95349410,-0.21530510,230.73020000,0.00784326
0.64000039,0.32295760,-0.03075787,245.74000000,0.00784326
0.72000039,-0.27682080,-0.03075787,254.81360000,0.00787402
0.80000039,-0.67667320,-0.21530510,258.01240000,0.00793553
0.88000039,-0.73818890,-0.58439960,255.81320000,0.00805856
0.96000039,-0.49212600,-1.09190400,249.04650000,0.00821235
1.04000039,-0.16916830,-1.67630400,238.71190000,0.00836614
1.12000039,-0.12303150,-2.27608300,225.87040000,0.00851993
1.20000039,-1.10728300,-2.87586100,211.42960000,0.00855069
1.28000040,-3.86011300,-3.38336600,196.12760000,0.00845842
1.36000040,-8.64296200,-3.75246000,180.48720000,0.00827387
1.44000040,-15.48659000,-3.92162900,164.76990000,0.00799705
1.52000040,-24.16031000,-3.84473400,149.02190000,0.00772023
1.60000040,-34.26427000,-3.49101900,133.16620000,0.00747416
1.68000040,-45.36786000,-2.87586100,117.11060000,0.00735113
1.76000040,-57.05585000,-2.04539800,100.76280000,0.00728962
1.84000040,-69.17445000,-1.09190400,84.18430000,0.00725886
1.92000040,-81.80056000,-0.15378940,67.57505000,0.00713583
2.00000041,-95.59547000,0.55364170,51.25800000,0.00652067
2.08000041,-111.29740000,0.79970470,35.74065000,0.00516732
2.16000041,-129.29070000,0.64591530,21.56127000,0.00322958
2.24000041,-149.71390000,0.23068400,9.25812000,0.00104577
2.32000041,-172.45940000,-0.21530510,-0.79970470,-0.00095349
2.40000041,-197.15800000,-0.46136810,-8.39689900,-0.00239911
2.48000041,-223.20990000,-0.36909450,-13.51808000,-0.00304503
2.56000041,-249.89230000,0.04613681,-16.42470000,-0.00292200
2.64000041,-276.48250000,0.53826270,-17.54737000,-0.00252215
2.72000042,-302.36530000,0.64591530,-17.56274000,-0.00270669
2.80000042,-327.30990000,-0.50750490,-17.14751000,-0.00504429
2.88000042,-351.16260000,-3.81397600,-16.62463000,-0.01110359
2.96000042,-373.61590000,-9.68872900,-16.19402000,-0.02177658
3.04000042,-394.36210000,-18.27018000,-15.85568000,-0.03740158
3.12000042,-413.12440000,-29.40452000,-15.50197000,-0.05788632
3.20000042,-429.64130000,-42.67655000,-14.94833000,-0.08261565
3.28000042,-443.71310000,-57.59412000,-14.04097000,-0.11063610
3.36000042,-455.20110000,-73.57283000,-12.67224000,-0.14096330
3.44000042,-464.09010000,-90.24359000,-10.85753000,-0.17258240
3.52000043,-470.44170000,-107.43720000,-8.75061400,-0.20490900
3.60000043,-474.53250000,-125.47670000,-6.58218500,-0.23788140
3.68000043,-476.71620000,-144.85420000,-4.47527100,-0.27180730
3.76000043,-477.14690000,-165.75420000,-2.52214600,-0.30668680
3.84000043,-475.87040000,-188.23820000,-0.78432570,-0.34258120
3.92000043,-472.91760000,-212.18320000,0.72281000,-0.37933690
4.00000043,-468.16560000,-237.28160000,2.01464100,-0.41664620
4.08000043,-461.56800000,-263.04130000,3.12192400,-0.45395550
4.16000043,-453.01730000,-288.84720000,4.09079700,-0.49055730
4.24000044,-442.52890000,-314.08400000,4.93663800,-0.52552900
4.32000044,-430.13350000,-338.12130000,5.67482800,-0.55794780
4.40000044,-416.06170000,-360.66680000,6.35150100,-0.58698330
4.48000044,-400.80580000,-381.47450000,6.92052100,-0.61189720
4.56000044,-384.88860000,-400.15990000,7.39726800,-0.63182820
4.64000044,-368.81760000,-416.46160000,7.73560500,-0.64619220
4.72000044,-353.00810000,-430.08730000,7.90477300,-0.65452750
4.80000044,-337.69070000,-440.89870000,7.88939400,-0.65668060
4.88000044,-322.95760000,-448.77270000,7.68946800,-0.65283580
4.96000045,-308.67060000,-453.74010000,7.30499500,-0.64342400
5.04000045,-294.58350000,-455.86240000,6.78211100,-0.62912150
5.12000045,-280.11190000,-455.32420000,6.16695300,-0.61072830
5.20000045,-264.85600000,-452.43290000,5.53641700,-0.58925930
5.28000045,-248.87730000,-447.51170000,4.95201700,-0.56566800
5.36000045,-232.43720000,-440.77570000,4.45989200,-0.54072340
5.44000045,-215.96640000,-432.34800000,4.07541800,-0.51507130
5.52000045,-199.97230000,-422.32100000,3.79859700,-0.48898870
5.60000045,-184.85480000,-410.70990000,3.64480800,-0.46269070
5.68000045,-170.87540000,-397.48400000,3.58329200,-0.43611590
5.76000046,-158.06470000,-382.68950000,3.59867100,-0.40914120
5.84000046,-146.25370000,-366.38780000,3.64480800,-0.38167450
5.92000046,-134.85790000,-348.67120000,3.72170300,-0.35343870
6.00000046,-123.30830000,-329.81670000,3.78321800,-0.32452630
6.08000046,-111.55880000,-310.33160000,3.84473400,-0.29549090
6.16000046,-99.70164000,-290.84640000,3.89087100,-0.26710140
6.24000046,-88.02903000,-271.89960000,3.90625000,-0.24015750
6.32000046,-76.89468000,-253.99850000,3.92162900,-0.21545890
6.40000046,-66.62155000,-237.40460000,3.93700800,-0.19349780
6.48000047,-57.42495000,-222.19490000,3.93700800,-0.17445870
6.56000047,-49.39714000,-208.23080000,3.95238700,-0.15821850
6.64000047,-42.44586000,-195.22020000,3.95238700,-0.14425440
6.72000047,-36.17126000,-182.51720000,3.95238700,-0.13155140
6.80000047,-30.17347000,-169.67580000,3.95238700,-0.11918680
6.88000047,-24.40637000,-156.69600000,3.93700800,-0.10697590
6.96000047,-18.94685000,-143.80840000,3.92162900,-0.09501107
7.04000047,-13.99483000,-131.39760000,3.92162900,-0.08369218
7.12000047,-9.73486600,-119.92490000,3.92162900,-0.07354207
7.20000048,-6.38225800,-109.72870000,3.92162900,-0.06499138
7.28000048,-4.02928100,-101.03960000,3.93700800,-0.05831693
7.36000048,-2.67593500,-93.85765000,3.95238700,-0.05361097
7.44000048,-2.19918800,-87.93675000,3.95238700,-0.05056594
7.52000048,-2.26070400,-82.67715000,3.95238700,-0.04850517
7.60000048,-2.53752400,-77.46371000,3.95238700,-0.04665969
7.68000048,-2.90661900,-72.14259000,3.93700800,-0.04475271
7.76000048,-3.29109200,-66.72921000,3.92162900,-0.04263041
7.84000048,-3.69094500,-61.39271000,3.92162900,-0.04035433
7.92000048,-4.16769200,-56.40993000,3.92162900,-0.03810900
8.00000049,-4.78284900,-52.02694000,3.92162900,-0.03607899
8.08000049,-5.58255400,-48.42827000,3.93700800,-0.03441806
8.16000049,-6.61294300,-45.64468000,3.95238700,-0.03321850
8.24000049,-7.84325700,-43.59928000,3.95238700,-0.03254183
8.32000049,-9.21198300,-41.89222000,3.95238700,-0.03211122
8.40000049,-10.62684000,-40.07751000,3.95238700,-0.03177289
8.48000049,-12.05709000,-37.98597000,3.93700800,-0.03149606
8.56000049,-13.51808000,-35.55610000,3.92162900,-0.03131152
8.64000049,-14.96371000,-32.81865000,3.92162900,-0.03131152
8.72000050,-16.40932000,-29.91203000,3.92162900,-0.03152682
8.80000050,-17.80881000,-26.95927000,3.92162900,-0.03204970
8.88000050,-19.16216000,-24.09879000,3.93700800,-0.03291092
8.96000050,-20.46936000,-21.43824000,3.95238700,-0.03407972
9.04000050,-21.69968000,-18.97761000,3.95238700,-0.03543307
9.12000050,-22.85310000,-16.59387000,3.95238700,-0.03678642
9.20000050,-23.94500000,-14.10248000,3.95238700,-0.03795522
9.28000050,-24.99077000,-11.42655000,3.93700800,-0.03881644
9.36000050,-25.99040000,-8.56606700,3.92162900,-0.03930856
9.44000051,-26.97465000,-5.50565900,3.92162900,-0.03937008
9.52000051,-27.92815000,-2.30684000,3.92162900,-0.03897022
9.60000051,-28.86626000,0.93811510,3.92162900,-0.03820128
9.68000051,-29.75824000,4.18307100,3.93700800,-0.03709400
9.76000051,-30.55795000,7.33575200,3.95238700,-0.03570989
9.84000051,-31.26538000,10.35002000,3.95238700,-0.03411048
9.92000051,-31.80364000,13.21051000,3.95238700,-0.03235728
10.00000051,-32.14198000,15.91720000,3.95238700,-0.03045030
10.08000051,-32.24963000,18.42397000,3.93700800,-0.02845103
10.16000051,-32.09584000,20.68467000,3.92162900,-0.02642101
10.24000052,-31.68061000,22.65317000,3.92162900,-0.02448327
10.32000052,-31.01931000,24.32948000,3.92162900,-0.02260704
10.40000052,-30.14272000,25.66744000,3.92162900,-0.02091535
10.48000052,-29.05081000,26.68245000,3.93700800,-0.01931594
10.56000052,-27.80512000,27.37451000,3.95238700,-0.01787033
10.64000052,-26.39025000,27.74360000,3.95238700,-0.01648622
10.72000052,-24.82160000,27.80512000,3.95238700,-0.01513287
10.80000052,-23.08378000,27.55905000,3.95238700,-0.01368725
10.88000052,-21.14604000,26.92852000,3.93700800,-0.01214936
10.96000053,-19.05450000,25.89813000,3.92162900,-0.01048843
11.04000053,-16.83994000,24.43713000,3.92162900,-0.00873524
11.12000053,-14.53309000,22.53014000,3.92162900,-0.00695128
11.20000053,-12.16474000,20.20792000,3.92162900,-0.00516732
11.28000053,-9.79638200,17.50123000,3.93700800,-0.00341412
11.36000053,-7.44340500,14.48696000,3.95238700,-0.00178396
11.44000053,-5.10580700,11.22662000,3.95238700,-0.00021531
11.52000053,-2.79896600,7.82787800,3.95238700,0.00129183
11.60000053,-0.44598910,4.32148100,3.95238700,0.00276821
