Time,Channel A,Channel B,Channel C,Channel D
(ns),(mV),(mV),(mV),(V)

-15.27868883,0.10765260,0.00000000,4.02928100,0.00024606
-15.19868882,0.23068400,0.00000000,4.19845000,0.00089198
-15.11868882,0.24606300,0.00000000,4.27534400,0.00166093
-15.03868882,0.18454720,0.00000000,4.29072300,0.00252215
-14.95868882,0.06151574,0.00000000,4.25996500,0.00347564
-14.87868882,-0.06151574,0.00000000,4.18307100,0.00442913
-14.79868882,-0.18454720,0.00000000,4.10617600,0.00535187
-14.71868882,-0.24606300,0.00000000,4.02928100,0.00621309
-14.63868882,-0.23068400,0.00000000,3.96776600,0.00698204
-14.55868882,-0.10765260,0.00000000,3.93700800,0.00759720
-14.47868881,0.13841040,0.00000000,3.92162900,0.00805856
-14.39868881,0.52288380,0.00000000,3.92162900,0.00836614
-14.31868881,1.01501000,0.00000000,3.93700800,0.00855069
-14.23868881,1.58403000,0.00000000,3.93700800,0.00858145
-14.15868881,2.21456700,0.00000000,3.95238700,0.00851993
-14.07868881,2.82972400,0.00000000,3.95238700,0.00836614
-13.99868881,3.36798700,0.00000000,3.95238700,0.00821235
-13.91868881,3.78321800,0.00000000,3.93700800,0.00805856
-13.83868881,4.01390200,-0.01537894,3.93700800,0.00793553
-13.75868880,4.01390200,0.00000000,3.92162900,0.00787402
-13.67868880,3.76783900,0.01537894,3.90625000,0.00784326
-13.59868880,3.26033400,0.04613681,3.89087100,0.00784326
-13.51868880,2.52214600,0.09227362,3.84473400,0.00787402
-13.43868880,1.58403000,0.16916830,3.78321800,0.00787402
-13.35868880,0.53826270,0.23068400,3.72170300,0.00790477
-13.27868880,-0.53826270,0.30757870,3.64480800,0.00790477
-13.19868880,-1.58403000,0.35371550,3.59867100,0.00790477
-13.11868880,-2.52214600,0.33833660,3.59867100,0.00787402
-13.03868880,-3.26033400,0.27682080,3.66018700,0.00784326
-12.95868879,-3.76783900,0.10765260,3.81397600,0.00784326
-12.87868879,-4.01390200,-0.13841040,4.06003900,0.00784326
-12.79868879,-4.01390200,-0.49212600,4.41375400,0.00784326
-12.71868879,-3.78321800,-0.92273620,4.85974400,0.00787402
-12.63868879,-3.36798700,-1.43024100,5.38262700,0.00790477
-12.55868879,-2.82972400,-1.96850400,5.92089000,0.00790477
-12.47868879,-2.21456700,-2.52214600,6.47453200,0.00790477
-12.39868879,-1.59940900,-3.02965000,6.96665800,0.00790477
-12.31868879,-1.01501000,-3.44488200,7.38188900,0.00787402
-12.23868878,-0.53826270,-3.75246000,7.67408900,0.00784326
-12.15868878,-0.15378940,-3.90625000,7.82787800,0.00784326
-12.07868878,0.12303150,-3.89087100,7.82787800,0.00784326
-11.99868878,0.27682080,-3.70632400,7.67408900,0.00784326
-11.91868878,0.35371550,-3.35260800,7.38188900,0.00787402
-11.83868878,0.35371550,-2.86048200,6.96665800,0.00790477
-11.75868878,0.30757870,-2.27608300,6.47453200,0.00790477
-11.67868878,0.23068400,-1.67630400,5.92089000,0.00790477
-11.59868878,0.16916830,-1.09190400,5.36724900,0.00790477
-11.51868877,0.09227362,-0.58439960,4.85974400,0.00787402
-11.43868877,0.04613681,-0.23068400,4.39837600,0.00784326
-11.35868877,0.01537894,-0.03075787,4.06003900,0.00784326
-11.27868877,0.00000000,-0.01537894,3.81397600,0.00784326
-11.19868877,-0.01537894,-0.16916830,3.70632400,0.00784326
-11.11868877,0.00000000,-0.49212600,3.69094500,0.00787402
-11.03868877,0.00000000,-0.92273620,3.76783900,0.00790477
-10.95868877,0.00000000,-1.43024100,3.89087100,0.00790477
-10.87868877,0.00000000,-1.98388300,4.01390200,0.00790477
-10.79868877,0.00000000,-2.52214600,4.12155500,0.00787402
-10.71868876,0.00000000,-3.01427100,4.18307100,0.00787402
-10.63868876,-0.01537894,-3.44488200,4.15231300,0.00784326
-10.55868876,0.00000000,-3.78321800,4.01390200,0.00784326
-10.47868876,0.01537894,-4.02928100,3.79859700,0.00787402
-10.39868876,0.04613681,-4.15231300,3.49101900,0.00793553
-10.31868876,0.09227362,-4.18307100,3.10654500,0.00805856
-10.23868876,0.16916830,-4.13693400,2.67593500,0.00821235
-10.15868876,0.23068400,-4.01390200,2.21456700,0.00836614
-10.07868876,0.30757870,-3.89087100,1.73782000,0.00851993
-9.99868875,0.35371550,-3.76783900,1.27645200,0.00858145
-9.91868875,0.33833660,-3.69094500,0.83046260,0.00855069
-9.83868875,0.27682080,-3.70632400,0.46136810,0.00836614
-9.75868875,0.10765260,-3.81397600,0.13841040,0.00805856
-9.67868875,-0.13841040,-4.06003900,-0.12303150,0.00759720
-9.59868875,-0.49212600,-4.39837600,-0.30757870,0.00698204
-9.51868875,-0.92273620,-4.85974400,-0.43061020,0.00621309
-9.43868875,-1.43024100,-5.36724900,-0.50750490,0.00535187
-9.35868875,-1.96850400,-5.92089000,-0.53826270,0.00442913
-9.27868874,-2.52214600,-6.47453200,-0.53826270,0.00347564
-9.19868874,-3.01427100,-6.96665800,-0.50750490,0.00255290
-9.11868874,-3.44488200,-7.36651000,-0.43061020,0.00166093
-9.03868874,-3.73708200,-7.65871000,-0.30757870,0.00092274
-8.95868874,-3.90625000,-7.81250000,-0.12303150,0.00027682
-8.87868874,-3.90625000,-7.82787800,0.13841040,-0.00024606
-8.79868874,-3.73708200,-7.72022600,0.46136810,-0.00061516
-8.71868874,-3.44488200,-7.47416300,0.83046260,-0.00086122
-8.63868874,-3.01427100,-7.13582600,1.27645200,-0.00101501
-8.55868874,-2.52214600,-6.70521600,1.73782000,-0.00107653
-8.47868873,-1.96850400,-6.22846900,2.21456700,-0.00107653
-8.39868873,-1.43024100,-5.72096400,2.67593500,-0.00101501
-8.31868873,-0.92273620,-5.19808000,3.10654500,-0.00086122
-8.23868873,-0.47674700,-4.67519700,3.49101900,-0.00061516
-8.15868873,-0.13841040,-4.16769200,3.79859700,-0.00024606
-8.07868873,0.10765260,-3.67556500,4.02928100,0.00027682
-7.99868873,0.23068400,-3.21419800,4.18307100,0.00098425
-7.91868873,0.24606300,-2.76820900,4.27534400,0.00187623
-7.83868873,0.18454720,-2.33759800,4.29072300,0.00286048
-7.75868872,0.06151574,-1.90698800,4.25996500,0.00393701
-7.67868872,-0.06151574,-1.50713600,4.18307100,0.00504429
-7.59868872,-0.18454720,-1.10728300,4.10617600,0.00602854
-7.51868872,-0.24606300,-0.73818890,4.02928100,0.00688976
-7.43868872,-0.23068400,-0.41523130,3.96776600,0.00747416
-7.35868872,-0.10765260,-0.12303150,3.93700800,0.00781250
-7.27868872,0.13841040,0.10765260,3.92162900,0.00781250
-7.19868872,0.47674700,0.29219980,3.92162900,0.00747416
-7.11868872,0.92273620,0.43061020,3.93700800,0.00688976
-7.03868872,1.43024100,0.50750490,3.93700800,0.00602854
-6.95868871,1.96850400,0.53826270,3.95238700,0.00504429
-6.87868871,2.52214600,0.53826270,3.95238700,0.00393701
-6.79868871,3.01427100,0.50750490,3.95238700,0.00286048
-6.71868871,3.42950300,0.43061020,3.93700800,0.00187623
-6.63868871,3.73708200,0.30757870,3.92162900,0.00098425
-6.55868871,3.89087100,0.12303150,3.92162900,0.00027682
-6.47868871,3.90625000,-0.13841040,3.92162900,-0.00024606
-6.39868871,3.78321800,-0.46136810,3.92162900,-0.00061516
-6.31868871,3.53715500,-0.83046260,3.93700800,-0.00086122
-6.23868870,3.18344000,-1.27645200,3.95238700,-0.00101501
-6.15868870,2.75283000,-1.73782000,3.95238700,-0.00107653
-6.07868870,2.27608300,-2.21456700,3.95238700,-0.00107653
-5.99868870,1.78395700,-2.67593500,3.95238700,-0.00101501
-5.91868870,1.26107300,-3.10654500,3.93700800,-0.00086122
-5.83868870,0.75356790,-3.47564000,3.92162900,-0.00061516
-5.75868870,0.24606300,-3.78321800,3.92162900,-0.00024606
-5.67868870,-0.24606300,-4.04466000,3.92162900,0.00027682
-5.59868870,-0.75356790,-4.22920700,3.92162900,0.00098425
-5.51868869,-1.26107300,-4.36761800,3.93700800,0.00187623
-5.43868869,-1.78395700,-4.44451300,3.95238700,0.00286048
-5.35868869,-2.27608300,-4.49065000,3.95238700,0.00393701
-5.27868869,-2.75283000,-4.49065000,3.95238700,0.00504429
-5.19868869,-3.18344000,-4.45989200,3.95238700,0.00602854
-5.11868869,-3.53715500,-4.36761800,3.93700800,0.00688976
-5.03868869,-3.78321800,-4.24458600,3.92162900,0.00747416
-4.95868869,-3.90625000,-4.04466000,3.92162900,0.00781250
-4.87868869,-3.89087100,-3.78321800,3.92162900,0.00781250
-4.79868869,-3.73708200,-3.42950300,3.92162900,0.00747416
-4.71868868,-3.42950300,-2.99889300,3.93700800,0.00688976
-4.63868868,-3.01427100,-2.50676700,3.95238700,0.00602854
-4.55868868,-2.52214600,-1.98388300,3.95238700,0.00504429
-4.47868868,-1.96850400,-1.43024100,3.95238700,0.00393701
-4.39868868,-1.43024100,-0.92273620,3.95238700,0.00286048
-4.31868868,-0.93811510,-0.49212600,3.93700800,0.00187623
-4.23868868,-0.49212600,-0.16916830,3.92162900,0.00098425
-4.15868868,-0.13841040,-0.01537894,3.92162900,0.00027682
-4.07868868,0.12303150,-0.03075787,3.92162900,-0.00024606
-3.99868867,0.30757870,-0.23068400,3.92162900,-0.00061516
-3.91868867,0.43061020,-0.58439960,3.93700800,-0.00086122
-3.83868867,0.50750490,-1.09190400,3.95238700,-0.00101501
-3.75868867,0.53826270,-1.67630400,3.95238700,-0.00107653
-3.67868867,0.53826270,-2.27608300,3.95238700,-0.00107653
-3.59868867,0.50750490,-2.86048200,3.95238700,-0.00101501
-3.51868867,0.43061020,-3.35260800,3.93700800,-0.00086122
-3.43868867,0.30757870,-3.70632400,3.92162900,-0.00061516
-3.35868867,0.12303150,-3.89087100,3.92162900,-0.00024606
-3.27868866,-0.13841040,-3.89087100,3.92162900,0.00027682
-3.19868866,-0.49212600,-3.70632400,3.92162900,0.00092274
-3.11868866,-0.93811510,-3.35260800,3.93700800,0.00166093
-3.03868866,-1.43024100,-2.86048200,3.95238700,0.00255290
-2.95868866,-1.96850400,-2.27608300,3.95238700,0.00347564
-2.87868866,-2.52214600,-1.67630400,3.95238700,0.00442913
-2.79868866,-3.01427100,-1.09190400,3.95238700,0.00535187
-2.71868866,-3.44488200,-0.58439960,3.93700800,0.00621309
-2.63868866,-3.73708200,-0.23068400,3.92162900,0.00698204
-2.55868866,-3.90625000,-0.03075787,3.92162900,0.00759720
-2.47868865,-3.90625000,-0.01537894,3.92162900,0.00805856
-2.39868865,-3.73708200,-0.16916830,3.92162900,0.00836614
-2.31868865,-3.44488200,-0.49212600,3.93700800,0.00855069
-2.23868865,-3.01427100,-0.92273620,3.95238700,0.00858145
-2.15868865,-2.52214600,-1.43024100,3.95238700,0.00851993
-2.07868865,-1.96850400,-1.98388300,3.95238700,0.00836614
-1.99868865,-1.43024100,-2.50676700,3.95238700,0.00821235
-1.91868865,-0.92273620,-2.99889300,3.95238700,0.00805856
-1.83868865,-0.49212600,-3.42950300,3.95238700,0.00793553
-1.75868864,-0.13841040,-3.78321800,3.93700800,0.00787402
-1.67868864,0.10765260,-4.04466000,3.89087100,0.00784326
-1.59868864,0.27682080,-4.24458600,3.79859700,0.00784326
-1.51868864,0.33833660,-4.36761800,3.64480800,0.00787402
-1.43868864,0.35371550,-4.45989200,3.46026100,0.00787402
-1.35868864,0.30757870,-4.49065000,3.24495600,0.00790477
-1.27868864,0.23068400,-4.49065000,3.04502900,0.00790477
-1.19868864,0.16916830,-4.44451300,3.02965000,0.00790477
-1.11868864,0.09227362,-4.36761800,3.32185000,0.00787402
-1.03868863,0.04613681,-4.22920700,3.73708200,0.00784326
-0.95868863,0.01537894,-4.04466000,3.96776600,0.00784326
-0.87868863,0.00000000,-3.78321800,3.70632400,0.00784326
-0.79868863,-0.01537894,-3.47564000,2.62979800,0.00784326
-0.71868863,0.00000000,-3.10654500,0.63053640,0.00787402
-0.63868863,0.00000000,-2.67593500,-2.15305100,0.00790477
-0.55868863,0.00000000,-2.21456700,-5.27497500,0.00790477
-0.47868863,0.00000000,-1.73782000,-7.96628900,0.00790477
-0.39868863,-0.01537894,-1.26107300,-9.04281500,0.00787402
-0.31868863,-0.03075787,-0.83046260,-7.24347900,0.00787402
-0.23868862,-0.04613681,-0.44598910,-1.58403000,0.00784326
-0.15868862,-0.03075787,-0.12303150,8.70447700,0.00784326
-0.07868862,0.04613681,0.10765260,23.91425000,0.00787402
0.00131138,0.21530510,0.26144190,43.90686000,0.00793553
0.08131138,0.47674700,0.33833660,68.06718000,0.00805856
0.16131138,0.81508360,0.33833660,95.33402000,0.00821235
0.24131138,1.18417800,0.30757870,124.38480000,0.00836614
0.32131138,1.52251500,0.23068400,153.71250000,0.00851993
0.40131138,1.66092500,0.15378940,181.87130000,0.00858145
0.48131139,1.46099900,0.07689468,207.53870000,0.00855069
0.56131139,0.98425190,0.03075787,229.68440000,0.00836614
0.64131139,0.33833660,0.00000000,247.64700000,0.00805856
0.72131139,-0.30757870,0.01537894,261.13430000,0.00759720
0.80131139,-0.79970470,0.07689468,270.17710000,0.00698204
0.88131139,-1.01501000,0.18454720,275.14450000,0.00621309
0.96131139,-0.98425190,0.32295760,276.52860000,0.00535187
1.04131139,-0.87659940,0.47674700,274.88310000,0.00442913
1.12131139,-1.03038900,0.61515740,270.74620000,0.00347564
1.20131139,-2.13767200,0.67667320,264.47160000,0.00252215
1.28131140,-4.85974400,0.64591530,256.25920000,0.00159941
1.36131140,-9.42728800,0.49212600,246.20140000,0.00079970
1.44131140,-15.80955000,0.19992620,234.23660000,0.00021531
1.52131140,-23.76046000,-0.23068400,220.25710000,-0.00012303
1.60131140,-32.89555000,-0.75356790,204.20150000,-0.00018455
1.68131140,-42.76882000,-1.36872500,186.11590000,0.00009227
1.76131140,-53.08809000,-2.04539800,166.24630000,0.00061516
1.84131140,-63.71493000,-2.76820900,145.02340000,0.00129183
1.92131140,-74.84928000,-3.52177600,123.03150000,0.00196850
2.00131141,-87.22933000,-4.39837600,101.02420000,0.00227608
2.08131141,-101.67020000,-5.47490100,79.83205000,0.00203002
2.16131141,-118.61770000,-6.59756400,60.25467000,0.00129183
2.24131141,-138.24130000,-7.52030000,42.95337000,0.00039985
2.32131141,-160.46380000,-8.02780400,28.37414000,-0.00030758
2.40131141,-184.87020000,-7.90477300,16.70152000,-0.00043061
2.48131141,-210.84520000,-7.04355200,7.85863600,0.00021531
2.56131141,-237.63530000,-5.56717500,1.50713600,0.00153789
2.64131141,-264.50230000,-3.78321800,-2.87586100,0.00313730
2.72131142,-290.80030000,-2.24532500,-6.02854300,0.00418307
2.80131142,-316.29860000,-1.90698800,-8.61220400,0.00319882
2.88131142,-340.84340000,-3.69094500,-10.93442000,-0.00126107
2.96131142,-364.15780000,-8.04318300,-13.07210000,-0.00996555
3.04131142,-385.93440000,-15.10212000,-14.93295000,-0.02316068
3.12131142,-405.89620000,-24.71395000,-16.30167000,-0.04060039
3.20131142,-423.76660000,-36.43270000,-16.93221000,-0.06170030
3.28131142,-439.33010000,-49.75086000,-16.65539000,-0.08559916
3.36131142,-452.41750000,-64.13016000,-15.40969000,-0.11137430
3.44131142,-462.96750000,-79.21690000,-13.28740000,-0.13834890
3.52131143,-471.01070000,-94.91880000,-10.64222000,-0.16615400
3.60131143,-476.82390000,-111.65110000,-7.87401500,-0.19522020
3.68131143,-480.69940000,-129.99810000,-5.22883800,-0.22616260
3.76131143,-482.74480000,-150.23680000,-2.86048200,-0.25938110
3.84131143,-483.00620000,-172.49010000,-0.86122040,-0.29502950
3.92131143,-481.43760000,-196.66580000,0.76894680,-0.33313850
4.00131143,-477.94660000,-222.42560000,2.06077700,-0.37333910
4.08131143,-472.42550000,-249.24640000,3.09116600,-0.41492370
4.16131143,-464.81300000,-276.46710000,3.93700800,-0.45693900
4.24131144,-455.12420000,-303.36490000,4.69057600,-0.49812380
4.32131144,-443.40550000,-329.24760000,5.38262700,-0.53721700
4.40131144,-429.94890000,-353.73090000,5.99778500,-0.57305000
4.48131144,-415.27740000,-376.52250000,6.58218500,-0.60466900
4.56131144,-399.89850000,-397.22250000,7.13582600,-0.63099780
4.64131144,-384.30420000,-415.49270000,7.62795300,-0.65126720
4.72131144,-368.87920000,-431.04080000,8.04318300,-0.66498520
4.80131144,-353.83860000,-443.69770000,8.38152000,-0.67199800
4.88131144,-339.25930000,-453.35570000,8.61220400,-0.67249020
4.96131145,-324.97230000,-460.03010000,8.73523500,-0.66695370
5.04131145,-310.76210000,-463.79790000,8.75061400,-0.65612700
5.12131145,-296.09060000,-464.82830000,8.68909800,-0.64090180
5.20131145,-280.61940000,-463.44420000,8.56606700,-0.62223180
5.28131145,-264.45620000,-459.96860000,8.39689900,-0.60103960
5.36131145,-247.93920000,-454.60130000,8.19697300,-0.57809420
5.44131145,-231.56060000,-447.45010000,7.96628900,-0.55382630
5.52131145,-215.81260000,-438.57650000,7.70484700,-0.52851250
5.60131145,-201.12570000,-427.94960000,7.39726800,-0.50224530
5.68131145,-187.71530000,-415.56960000,7.02817400,-0.47493230
5.76131146,-175.59670000,-401.42100000,6.61294300,-0.44657360
5.84131146,-164.50850000,-385.62680000,6.16695300,-0.41713830
5.92131146,-153.78940000,-368.24860000,5.69020700,-0.38662650
6.00131146,-142.80880000,-349.60930000,5.21345900,-0.35525350
6.08131146,-131.39760000,-330.21650000,4.76747000,-0.32384960
6.16131146,-119.66350000,-310.71600000,4.36761800,-0.29327630
6.24131146,-107.82170000,-291.63080000,4.04466000,-0.26448700
6.32131146,-96.24138000,-273.45290000,3.82935500,-0.23831200
6.40131146,-85.26082000,-256.45910000,3.70632400,-0.21524360
6.48131147,-75.14149000,-240.71110000,3.69094500,-0.19540480
6.56131147,-65.99102000,-226.08570000,3.76783900,-0.17861100
6.64131147,-57.77866000,-212.27550000,3.89087100,-0.16421630
6.72131147,-50.13533000,-198.69590000,4.01390200,-0.15111340
6.80131147,-42.72268000,-184.90090000,4.13693400,-0.13822590
6.88131147,-35.54072000,-170.92150000,4.18307100,-0.12533830
6.96131147,-28.71247000,-157.03430000,4.15231300,-0.11248150
7.04131147,-22.45325000,-143.63930000,4.02928100,-0.10005540
7.12131147,-17.00910000,-131.21310000,3.78321800,-0.08852116
7.20131148,-12.56459000,-120.14020000,3.44488200,-0.07843257
7.28131148,-9.22736200,-110.60530000,3.01427100,-0.07009719
7.36131148,-6.99741600,-102.62360000,2.52214600,-0.06363804
7.44131148,-5.70558500,-95.94918000,1.98388300,-0.05883981
7.52131148,-5.01353300,-89.93602000,1.43024100,-0.05499508
7.60131148,-4.58292300,-83.96899000,0.92273620,-0.05142717
7.68131148,-4.27534400,-77.87893000,0.49212600,-0.04785925
7.76131148,-4.04466000,-71.71198000,0.18454720,-0.04432210
7.84131148,-3.92162900,-65.65268000,0.01537894,-0.04084646
7.92131148,-3.98314500,-59.99323000,0.01537894,-0.03767839
8.00131149,-4.33686000,-54.99508000,0.18454720,-0.03503322
8.08131149,-5.02891200,-50.87352000,0.49212600,-0.03306472
8.16131149,-6.09005900,-47.64394000,0.92273620,-0.03183440
8.24131149,-7.47416300,-45.21407000,1.43024100,-0.03131152
8.32131149,-9.04281500,-43.15329000,1.98388300,-0.03115773
8.40131149,-10.64222000,-41.03100000,2.50676700,-0.03112697
8.48131149,-12.22625000,-38.63189000,2.99889300,-0.03112697
8.56131149,-13.71801000,-35.90981000,3.42950300,-0.03115773
8.64131149,-15.07136000,-32.92630000,3.78321800,-0.03128076
8.72131150,-16.27091000,-29.80438000,4.04466000,-0.03152682
8.80131150,-17.28592000,-26.71321000,4.24458600,-0.03201895
8.88131150,-18.14714000,-23.77584000,4.36761800,-0.03275714
8.96131150,-18.86995000,-21.09990000,4.45989200,-0.03377214
9.04131150,-19.48511000,-18.67003000,4.49065000,-0.03497170
9.12131150,-20.03875000,-16.34781000,4.49065000,-0.03617126
9.20131150,-20.57702000,-13.93332000,4.45989200,-0.03727854
9.28131150,-21.20755000,-11.33428000,4.36761800,-0.03817052
9.36131150,-21.99188000,-8.50455100,4.24458600,-0.03878568
9.44131151,-22.96075000,-5.49028000,4.04466000,-0.03915477
9.52131151,-24.16031000,-2.33759800,3.78321800,-0.03924705
9.60131151,-25.55979000,0.89197830,3.42950300,-0.03909326
9.68131151,-27.14382000,4.07541800,2.99889300,-0.03875492
9.76131151,-28.80475000,7.16658400,2.50676700,-0.03826280
9.84131151,-30.48105000,10.10396000,1.98388300,-0.03761688
9.92131151,-32.04970000,12.90293000,1.43024100,-0.03678642
10.00131151,-33.38767000,15.56348000,0.92273620,-0.03580217
10.08131151,-34.41806000,18.08563000,0.50750490,-0.03463336
10.16131151,-35.07935000,20.42323000,0.19992620,-0.03337229
10.24131152,-35.32542000,22.54552000,0.03075787,-0.03204970
10.32131152,-35.17163000,24.45251000,0.01537894,-0.03069636
10.40131152,-34.63336000,26.11343000,0.13841040,-0.02937377
10.48131152,-33.75676000,27.51292000,0.39985230,-0.02805118
10.56131152,-32.60334000,28.63558000,0.76894680,-0.02675935
10.64131152,-31.18848000,29.48142000,1.19955700,-0.02546752
10.72131152,-29.55832000,30.01968000,1.67630400,-0.02411417
10.80131152,-27.69746000,30.21961000,2.16843000,-0.02257628
10.88131152,-25.60593000,30.01968000,2.67593500,-0.02085384
10.96131153,-23.32985000,29.37377000,3.16806100,-0.01891609
11.04131153,-20.88459000,28.22035000,3.67556500,-0.01679380
11.12131153,-18.30093000,26.57480000,4.16769200,-0.01454847
11.20131153,-15.62500000,24.43713000,4.69057600,-0.01218012
11.28131153,-12.88755000,21.86885000,5.19808000,-0.00981176
11.36131153,-10.11934000,18.93147000,5.72096400,-0.00744341
11.44131153,-7.32037400,15.71727000,6.22846900,-0.00510581
11.52131153,-4.53678600,12.31853000,6.70521600,-0.00279897
11.60131153,-1.72244100,8.78137200,7.13582600,-0.00046137
11.68131153,1.10728300,5.15194400,7.47416300,0.00190699
