Time,Channel A,Channel B,Channel C,Channel D
(ns),(mV),(mV),(mV),(V)

-15.31428583,-0.03075787,-3.90625000,7.82787800,0.00781250
-15.23428582,-0.21530510,-3.72170300,7.67408900,0.00775098
-15.15428582,-0.58439960,-3.35260800,7.38188900,0.00765871
-15.07428582,-1.09190400,-2.86048200,6.96665800,0.00756644
-14.99428582,-1.67630400,-2.27608300,6.47453200,0.00744341
-14.91428582,-2.27608300,-1.67630400,5.92089000,0.00728962
-14.83428582,-2.86048200,-1.09190400,5.36724900,0.00719734
-14.75428582,-3.35260800,-0.58439960,4.85974400,0.00716658
-14.67428582,-3.70632400,-0.23068400,4.39837600,0.00728962
-14.59428582,-3.89087100,-0.03075787,4.06003900,0.00759720
-14.51428581,-3.90625000,-0.01537894,3.81397600,0.00815084
-14.43428581,-3.75246000,-0.16916830,3.70632400,0.00891978
-14.35428581,-3.44488200,-0.49212600,3.69094500,0.00990404
-14.27428581,-3.02965000,-0.92273620,3.76783900,0.01107283
-14.19428581,-2.52214600,-1.43024100,3.89087100,0.01233391
-14.11428581,-1.96850400,-1.98388300,4.01390200,0.01356422
-14.03428581,-1.43024100,-2.50676700,4.13693400,0.01460999
-13.95428581,-0.92273620,-3.01427100,4.18307100,0.01544045
-13.87428581,-0.47674700,-3.44488200,4.15231300,0.01587106
-13.79428580,-0.13841040,-3.78321800,4.02928100,0.01587106
-13.71428580,0.10765260,-4.02928100,3.78321800,0.01537894
-13.63428580,0.23068400,-4.19845000,3.44488200,0.01445620
-13.55428580,0.24606300,-4.27534400,3.01427100,0.01310285
-13.47428580,0.18454720,-4.29072300,2.52214600,0.01138041
-13.39428580,0.06151574,-4.25996500,1.98388300,0.00947343
-13.31428580,-0.06151574,-4.18307100,1.43024100,0.00741265
-13.23428580,-0.18454720,-4.10617600,0.92273620,0.00541339
-13.15428580,-0.24606300,-4.02928100,0.49212600,0.00350640
-13.07428580,-0.23068400,-3.96776600,0.18454720,0.00187623
-12.99428579,-0.10765260,-3.92162900,0.01537894,0.00052288
-12.91428579,0.13841040,-3.92162900,0.01537894,-0.00043061
-12.83428579,0.47674700,-3.96776600,0.18454720,-0.00107653
-12.75428579,0.92273620,-4.02928100,0.49212600,-0.00135335
-12.67428579,1.43024100,-4.10617600,0.92273620,-0.00138410
-12.59428579,1.96850400,-4.18307100,1.43024100,-0.00123032
-12.51428579,2.52214600,-4.25996500,1.98388300,-0.00095349
-12.43428579,3.01427100,-4.29072300,2.50676700,-0.00064592
-12.35428579,3.42950300,-4.27534400,3.01427100,-0.00036909
-12.27428578,3.73708200,-4.18307100,3.44488200,-0.00015379
-12.19428578,3.89087100,-4.02928100,3.78321800,-0.00003076
-12.11428578,3.90625000,-3.79859700,4.02928100,0.00000000
-12.03428578,3.78321800,-3.49101900,4.19845000,-0.00006152
-11.95428578,3.53715500,-3.10654500,4.27534400,-0.00015379
-11.87428578,3.18344000,-2.67593500,4.29072300,-0.00030758
-11.79428578,2.75283000,-2.21456700,4.25996500,-0.00046137
-11.71428578,2.27608300,-1.73782000,4.18307100,-0.00061516
-11.63428578,1.78395700,-1.26107300,4.10617600,-0.00067667
-11.55428577,1.26107300,-0.83046260,4.02928100,-0.00067667
-11.47428577,0.75356790,-0.44598910,3.96776600,-0.00052288
-11.39428577,0.24606300,-0.12303150,3.93700800,-0.00021531
-11.31428577,-0.24606300,0.10765260,3.92162900,0.00024606
-11.23428577,-0.75356790,0.26144190,3.92162900,0.00089198
-11.15428577,-1.26107300,0.33833660,3.93700800,0.00166093
-11.07428577,-1.78395700,0.33833660,3.93700800,0.00252215
-10.99428577,-2.27608300,0.30757870,3.95238700,0.00347564
-10.91428577,-2.75283000,0.23068400,3.95238700,0.00442913
-10.83428577,-3.18344000,0.16916830,3.95238700,0.00535187
-10.75428576,-3.53715500,0.09227362,3.93700800,0.00621309
-10.67428576,-3.78321800,0.04613681,3.92162900,0.00698204
-10.59428576,-3.90625000,0.01537894,3.92162900,0.00759720
-10.51428576,-3.89087100,0.00000000,3.92162900,0.00805856
-10.43428576,-3.73708200,-0.01537894,3.92162900,0.00836614
-10.35428576,-3.42950300,0.00000000,3.93700800,0.00855069
-10.27428576,-3.01427100,0.00000000,3.95238700,0.00858145
-10.19428576,-2.52214600,0.00000000,3.95238700,0.00851993
-10.11428576,-1.96850400,0.00000000,3.95238700,0.00836614
-10.03428575,-1.43024100,0.00000000,3.95238700,0.00821235
-9.95428575,-0.92273620,0.00000000,3.93700800,0.00805856
-9.87428575,-0.47674700,-0.01537894,3.92162900,0.00793553
-9.79428575,-0.13841040,0.00000000,3.92162900,0.00787402
-9.71428575,0.10765260,0.01537894,3.92162900,0.00784326
-9.63428575,0.23068400,0.04613681,3.92162900,0.00784326
-9.55428575,0.24606300,0.09227362,3.93700800,0.00787402
-9.47428575,0.18454720,0.16916830,3.95238700,0.00787402
-9.39428575,0.06151574,0.23068400,3.95238700,0.00790477
-9.31428574,-0.06151574,0.30757870,3.95238700,0.00790477
-9.23428574,-0.18454720,0.35371550,3.95238700,0.00790477
-9.15428574,-0.24606300,0.35371550,3.93700800,0.00787402
-9.07428574,-0.23068400,0.27682080,3.92162900,0.00784326
-8.99428574,-0.10765260,0.12303150,3.92162900,0.00784326
-8.91428574,0.13841040,-0.15378940,3.92162900,0.00784326
-8.83428574,0.47674700,-0.53826270,3.92162900,0.00784326
-8.75428574,0.92273620,-1.01501000,3.93700800,0.00787402
-8.67428574,1.43024100,-1.59940900,3.95238700,0.00790477
-8.59428574,1.96850400,-2.21456700,3.95238700,0.00790477
-8.51428573,2.52214600,-2.82972400,3.95238700,0.00790477
-8.43428573,3.01427100,-3.36798700,3.95238700,0.00790477
-8.35428573,3.44488200,-3.78321800,3.93700800,0.00787402
-8.27428573,3.73708200,-4.01390200,3.92162900,0.00787402
-8.19428573,3.90625000,-4.01390200,3.92162900,0.00784326
-8.11428573,3.90625000,-3.76783900,3.92162900,0.00781250
-8.03428573,3.73708200,-3.26033400,3.92162900,0.00778174
-7.95428573,3.44488200,-2.52214600,3.93700800,0.00768947
-7.87428573,3.01427100,-1.58403000,3.95238700,0.00756644
-7.79428572,2.52214600,-0.53826270,3.95238700,0.00744341
-7.71428572,1.96850400,0.53826270,3.95238700,0.00728962
-7.63428572,1.43024100,1.58403000,3.95238700,0.00719734
-7.55428572,0.92273620,2.50676700,3.93700800,0.00719734
-7.47428572,0.49212600,3.24495600,3.92162900,0.00732037
-7.39428572,0.13841040,3.75246000,3.92162900,0.00762795
-7.31428572,-0.10765260,4.02928100,3.92162900,0.00812008
-7.23428572,-0.27682080,4.06003900,3.92162900,0.00882751
-7.15428572,-0.33833660,3.87549200,3.93700800,0.00971949
-7.07428572,-0.35371550,3.53715500,3.95238700,0.01076526
-6.99428571,-0.30757870,3.06040800,3.95238700,0.01184178
-6.91428571,-0.23068400,2.52214600,3.95238700,0.01294907
-6.83428571,-0.16916830,1.93774600,3.93700800,0.01393332
-6.75428571,-0.09227362,1.36872500,3.93700800,0.01476378
-6.67428571,-0.04613681,0.79970470,3.92162900,0.01534818
-6.59428571,-0.01537894,0.26144190,3.92162900,0.01565576
-6.51428571,0.00000000,-0.26144190,3.93700800,0.01565576
-6.43428571,0.01537894,-0.76894680,3.96776600,0.01534818
-6.35428571,0.00000000,-1.27645200,4.02928100,0.01476378
-6.27428570,0.00000000,-1.78395700,4.10617600,0.01393332
-6.19428570,0.00000000,-2.27608300,4.18307100,0.01294907
-6.11428570,0.00000000,-2.75283000,4.25996500,0.01184178
-6.03428570,0.00000000,-3.18344000,4.29072300,0.01076526
-5.95428570,0.00000000,-3.53715500,4.27534400,0.00971949
-5.87428570,-0.01537894,-3.79859700,4.19845000,0.00882751
-5.79428570,0.00000000,-3.92162900,4.02928100,0.00812008
-5.71428570,0.01537894,-3.89087100,3.78321800,0.00762795
-5.63428570,0.04613681,-3.69094500,3.44488200,0.00732037
-5.55428569,0.09227362,-3.33722900,3.01427100,0.00719734
-5.47428569,0.16916830,-2.86048200,2.50676700,0.00719734
-5.39428569,0.23068400,-2.27608300,1.98388300,0.00728962
-5.31428569,0.30757870,-1.67630400,1.43024100,0.00744341
-5.23428569,0.35371550,-1.09190400,0.92273620,0.00756644
-5.15428569,0.33833660,-0.58439960,0.49212600,0.00768947
-5.07428569,0.27682080,-0.23068400,0.18454720,0.00778174
-4.99428569,0.10765260,-0.03075787,0.01537894,0.00781250
-4.91428569,-0.13841040,-0.01537894,0.01537894,0.00784326
-4.83428569,-0.49212600,-0.16916830,0.18454720,0.00787402
-4.75428568,-0.92273620,-0.49212600,0.49212600,0.00787402
-4.67428568,-1.43024100,-0.92273620,0.92273620,0.00790477
-4.59428568,-1.96850400,-1.43024100,1.43024100,0.00790477
-4.51428568,-2.52214600,-1.98388300,1.98388300,0.00790477
-4.43428568,-3.02965000,-2.50676700,2.50676700,0.00790477
-4.35428568,-3.44488200,-3.01427100,3.01427100,0.00787402
-4.27428568,-3.75246000,-3.44488200,3.44488200,0.00784326
-4.19428568,-3.90625000,-3.78321800,3.78321800,0.00784326
-4.11428568,-3.89087100,-4.02928100,4.02928100,0.00784326
-4.03428567,-3.70632400,-4.19845000,4.19845000,0.00784326
-3.95428567,-3.35260800,-4.27534400,4.27534400,0.00787402
-3.87428567,-2.86048200,-4.29072300,4.29072300,0.00790477
-3.79428567,-2.27608300,-4.25996500,4.25996500,0.00790477
-3.71428567,-1.67630400,-4.18307100,4.18307100,0.00790477
-3.63428567,-1.09190400,-4.10617600,4.10617600,0.00790477
-3.55428567,-0.58439960,-4.02928100,4.02928100,0.00787402
-3.47428567,-0.21530510,-3.96776600,3.96776600,0.00784326
-3.39428567,-0.03075787,-3.92162900,3.93700800,0.00784326
-3.31428566,-0.03075787,-3.92162900,3.92162900,0.00784326
-3.23428566,-0.21530510,-3.96776600,3.92162900,0.00784326
-3.15428566,-0.58439960,-4.02928100,3.93700800,0.00787402
-3.07428566,-1.09190400,-4.10617600,3.93700800,0.00790477
-2.99428566,-1.67630400,-4.18307100,3.95238700,0.00790477
-2.91428566,-2.27608300,-4.25996500,3.95238700,0.00790477
-2.83428566,-2.86048200,-4.29072300,3.95238700,0.00790477
-2.75428566,-3.35260800,-4.27534400,3.93700800,0.00787402
-2.67428566,-3.70632400,-4.18307100,3.92162900,0.00784326
-2.59428566,-3.89087100,-4.02928100,3.92162900,0.00784326
-2.51428565,-3.89087100,-3.79859700,3.92162900,0.00784326
-2.43428565,-3.70632400,-3.49101900,3.92162900,0.00784326
-2.35428565,-3.35260800,-3.10654500,3.93700800,0.00787402
-2.27428565,-2.86048200,-2.67593500,3.95238700,0.00790477
-2.19428565,-2.27608300,-2.21456700,3.95238700,0.00790477
-2.11428565,-1.67630400,-1.73782000,3.95238700,0.00790477
-2.03428565,-1.09190400,-1.27645200,3.95238700,0.00790477
-1.95428565,-0.58439960,-0.83046260,3.95238700,0.00787402
-1.87428565,-0.21530510,-0.46136810,3.95238700,0.00784326
-1.79428564,-0.03075787,-0.13841040,3.93700800,0.00784326
-1.71428564,-0.03075787,0.12303150,3.90625000,0.00784326
-1.63428564,-0.21530510,0.30757870,3.84473400,0.00784326
-1.55428564,-0.58439960,0.43061020,3.75246000,0.00787402
-1.47428564,-1.09190400,0.50750490,3.61405000,0.00790477
-1.39428564,-1.67630400,0.53826270,3.47564000,0.00790477
-1.31428564,-2.27608300,0.53826270,3.33722900,0.00790477
-1.23428564,-2.86048200,0.50750490,3.35260800,0.00790477
-1.15428564,-3.35260800,0.43061020,3.58329200,0.00787402
-1.07428563,-3.70632400,0.30757870,3.87549200,0.00784326
-0.99428563,-3.89087100,0.12303150,4.01390200,0.00784326
-0.91428563,-3.89087100,-0.13841040,3.69094500,0.00784326
-0.83428563,-3.70632400,-0.49212600,2.70669300,0.00784326
-0.75428563,-3.35260800,-0.93811510,0.93811510,0.00787402
-0.67428563,-2.86048200,-1.43024100,-1.47637800,0.00790477
-0.59428563,-2.27608300,-1.96850400,-4.16769200,0.00790477
-0.51428563,-1.67630400,-2.52214600,-6.52066900,0.00790477
-0.43428563,-1.09190400,-3.02965000,-7.58181600,0.00790477
-0.35428563,-0.59977850,-3.44488200,-6.30536400,0.00787402
-0.27428562,-0.24606300,-3.75246000,-1.89160900,0.00784326
-0.19428562,-0.04613681,-3.90625000,6.22846900,0.00784326
-0.11428562,0.00000000,-3.89087100,18.30093000,0.00784326
-0.03428562,-0.09227362,-3.70632400,34.17200000,0.00784326
0.04571438,-0.29219980,-3.35260800,53.34953000,0.00787402
0.12571438,-0.59977850,-2.86048200,75.01846000,0.00790477
0.20571438,-0.95349410,-2.27608300,98.10223000,0.00790477
0.28571438,-1.36872500,-1.67630400,121.43210000,0.00790477
0.36571438,-1.89160900,-1.09190400,143.91610000,0.00790477
0.44571439,-2.53752400,-0.58439960,164.57000000,0.00787402
0.52571439,-3.21419800,-0.23068400,182.64020000,0.00784326
0.60571439,-3.75246000,-0.03075787,197.66550000,0.00784326
0.68571439,-3.99852300,-0.01537894,209.46110000,0.00784326
0.76571439,-3.79859700,-0.16916830,218.08870000,0.00784326
0.84571439,-3.09116600,-0.49212600,223.82500000,0.00787402
0.92571439,-1.95312500,-0.92273620,226.96230000,0.00790477
1.00571439,-0.63053640,-1.43024100,227.83890000,0.00790477
1.08571439,0.50750490,-1.98388300,226.68550000,0.00790477
1.16571439,0.73818890,-2.52214600,223.59440000,0.00787402
1.24571440,-0.58439960,-3.04502900,218.50390000,0.00781250
1.32571440,-3.73708200,-3.49101900,211.30660000,0.00778174
1.40571440,-8.67371900,-3.81397600,201.80240000,0.00778174
1.48571440,-15.20977000,-3.98314500,189.80680000,0.00793553
1.56571440,-22.91462000,-3.98314500,175.30450000,0.00821235
1.64571440,-31.40379000,-3.79859700,158.40300000,0.00864296
1.72571440,-40.35433000,-3.47564000,139.42540000,0.00919661
1.80571440,-49.68934000,-3.07578700,118.95610000,0.00981176
1.88571440,-59.59338000,-2.66055600,97.71776000,0.01033465
1.96571441,-70.82000000,-2.46063000,76.57172000,0.01051919
2.04571441,-84.21506000,-2.59904000,56.45607000,0.01011934
2.12571441,-100.20910000,-3.02965000,38.18590000,0.00928888
2.20571441,-119.00220000,-3.62942900,22.45325000,0.00830463
2.28571441,-140.51730000,-4.18307100,9.70410800,0.00750492
2.36571441,-164.33930000,-4.50602900,0.06151574,0.00722810
2.44571441,-189.88370000,-4.47527100,-6.59756400,0.00768947
2.52571441,-216.39700000,-4.12155500,-10.68836000,0.00876599
2.60571441,-243.12560000,-3.64480800,-12.79527000,0.01008858
2.68571442,-269.42360000,-3.46026100,-13.70263000,0.01088829
2.76571442,-295.04490000,-4.35223900,-14.13324000,0.00971949
2.84571442,-319.89720000,-7.10506800,-14.47158000,0.00525960
2.92571442,-343.64230000,-12.01095000,-14.90219000,-0.00313730
3.00571442,-365.98790000,-19.17753000,-15.44045000,-0.01574803
3.08571442,-386.64180000,-28.37414000,-15.90182000,-0.03226501
3.16571442,-405.31190000,-39.21629000,-16.10175000,-0.05207308
3.24571442,-421.76730000,-51.24261000,-15.82493000,-0.07440329
3.32571442,-435.83910000,-64.02251000,-14.96371000,-0.09842519
3.40571442,-447.46550000,-77.30991000,-13.50271000,-0.12349290
3.48571443,-456.67750000,-91.08944000,-11.67261000,-0.14939100
3.56571443,-463.75180000,-105.89940000,-9.73486600,-0.17664250
3.64571443,-468.98070000,-122.38560000,-7.85863600,-0.20589320
3.72571443,-472.50240000,-140.87100000,-6.12081600,-0.23760460
3.80571443,-474.33250000,-161.49420000,-4.59830200,-0.27202260
3.88571443,-474.44020000,-184.16280000,-3.29109200,-0.30914740
3.96571443,-472.70240000,-208.56910000,-2.18380900,-0.34864050
4.04571443,-468.98070000,-234.14430000,-1.21493600,-0.38976380
4.12571443,-463.19820000,-260.22700000,-0.35371550,-0.43156370
4.20571444,-455.32420000,-286.09440000,0.43061020,-0.47271780
4.28571444,-445.37400000,-311.10050000,1.18417800,-0.51193400
4.36571444,-433.60910000,-334.86100000,1.89160900,-0.54807450
4.44571444,-420.44470000,-357.11430000,2.56828200,-0.58003200
4.52571444,-406.35760000,-377.50670000,3.16806100,-0.60676060
4.60571444,-391.76300000,-395.76150000,3.69094500,-0.62749140
4.68571444,-377.01460000,-411.63260000,4.12155500,-0.64170150
4.76571444,-362.31230000,-424.95070000,4.41375400,-0.64917570
4.84571444,-347.71770000,-435.62370000,4.58292300,-0.65016000
4.92571445,-333.13850000,-443.59000000,4.62906000,-0.64517720
5.00571445,-318.37470000,-448.88040000,4.56754400,-0.63493480
5.08571445,-303.02660000,-451.54100000,4.42913300,-0.62038630
5.16571445,-286.83250000,-451.75630000,4.27534400,-0.60251600
5.24571445,-269.94650000,-449.75700000,4.12155500,-0.58230810
5.32571445,-252.75280000,-445.58930000,4.01390200,-0.56043920
5.40571445,-235.75910000,-439.31470000,3.93700800,-0.53743230
5.48571445,-219.47280000,-430.91780000,3.90625000,-0.51356420
5.56571445,-204.26300000,-420.41400000,3.90625000,-0.48883490
5.64571445,-190.37590000,-407.78790000,3.92162900,-0.46318280
5.72571446,-177.74970000,-393.14710000,3.93700800,-0.43654650
5.80571446,-166.18480000,-376.66090000,3.95238700,-0.40889520
5.88571446,-154.98890000,-358.54450000,3.95238700,-0.38013650
5.96571446,-143.56240000,-339.18240000,3.95238700,-0.35051670
6.04571446,-131.78210000,-319.20520000,3.93700800,-0.32074310
6.12571446,-119.77120000,-299.24330000,3.92162900,-0.29161540
6.20571446,-107.82170000,-279.92740000,3.92162900,-0.26402560
6.28571446,-96.28752000,-261.68800000,3.92162900,-0.23871190
6.36571446,-85.55302000,-244.78650000,3.92162900,-0.21616630
6.44571447,-75.83353000,-229.28460000,3.93700800,-0.19654280
6.52571447,-67.23671000,-215.01290000,3.95238700,-0.17965670
6.60571447,-59.68565000,-201.61790000,3.95238700,-0.16495450
6.68571447,-52.71899000,-188.51500000,3.95238700,-0.15145180
6.76571447,-45.92150000,-175.24300000,3.95238700,-0.13819510
6.84571447,-39.23167000,-161.80180000,3.93700800,-0.12503080
6.92571447,-32.69562000,-148.43750000,3.92162900,-0.11211240
7.00571447,-26.46715000,-135.54990000,3.92162900,-0.09984006
7.08571447,-20.76156000,-123.60050000,3.92162900,-0.08879798
7.16571448,-15.77879000,-112.95830000,3.92162900,-0.07944759
7.24571448,-11.65723000,-103.80780000,3.93700800,-0.07209646
7.32571448,-8.42765700,-96.17987000,3.95238700,-0.06680610
7.40571448,-6.01316400,-89.84374000,3.95238700,-0.06323819
7.48571448,-4.16769200,-84.16891000,3.95238700,-0.06062377
7.56571448,-2.64517700,-78.57098000,3.95238700,-0.05816314
7.64571448,-1.41486200,-72.88078000,3.93700800,-0.05542569
7.72571448,-0.50750490,-67.12906000,3.92162900,-0.05234990
7.80571448,-0.04613681,-61.51574000,3.92162900,-0.04887426
7.88571448,-0.10765260,-56.28690000,3.92162900,-0.04521408
7.96571449,-0.81508360,-51.71936000,3.92162900,-0.04155389
8.04571449,-2.16843000,-47.99766000,3.93700800,-0.03810900
8.12571449,-4.15231300,-45.15256000,3.95238700,-0.03503322
8.20571449,-6.62832200,-43.06102000,3.95238700,-0.03238804
8.28571449,-9.35039300,-41.35396000,3.95238700,-0.03008120
8.36571449,-12.07246000,-39.57000000,3.95238700,-0.02795891
8.44571449,-14.62537000,-37.55536000,3.93700800,-0.02608268
8.52571449,-16.90145000,-35.24852000,3.92162900,-0.02463706
8.60571449,-18.80844000,-32.69562000,3.92162900,-0.02374508
8.68571450,-20.31557000,-30.05044000,3.92162900,-0.02352977
8.76571450,-21.40748000,-27.45140000,3.92162900,-0.02408342
8.84571450,-22.13029000,-25.03691000,3.93700800,-0.02537525
8.92571450,-22.56090000,-22.86848000,3.95238700,-0.02734375
9.00571450,-22.77620000,-20.96149000,3.95238700,-0.02977362
9.08571450,-22.85310000,-19.11602000,3.95238700,-0.03235728
9.16571450,-22.86848000,-17.11676000,3.95238700,-0.03478716
9.24571450,-22.91462000,-14.87143000,3.93700800,-0.03678642
9.32571450,-23.05302000,-12.30315000,3.92162900,-0.03823204
9.40571451,-23.34522000,-9.41190900,3.92162900,-0.03906250
9.48571451,-23.76046000,-6.21309000,3.92162900,-0.03921629
9.56571451,-24.31410000,-2.79896600,3.92162900,-0.03878568
9.64571451,-24.94463000,0.73818890,3.93700800,-0.03780143
9.72571451,-25.60593000,4.30610200,3.95238700,-0.03641732
9.80571451,-26.23647000,7.82787800,3.95238700,-0.03472564
9.88571451,-26.77473000,11.22662000,3.95238700,-0.03281865
9.96571451,-27.18996000,14.48696000,3.93700800,-0.03075787
10.04571451,-27.45140000,17.50123000,3.93700800,-0.02863558
10.12571451,-27.55905000,20.19254000,3.92162900,-0.02654405
10.20571452,-27.52830000,22.51476000,3.92162900,-0.02451403
10.28571452,-27.35913000,24.43713000,3.93700800,-0.02257628
10.36571452,-27.11306000,25.94427000,3.96776600,-0.02079232
10.44571452,-26.79011000,27.02079000,4.02928100,-0.01913140
10.52571452,-26.39025000,27.71284000,4.10617600,-0.01753199
10.60571452,-25.91351000,28.03580000,4.18307100,-0.01602485
10.68571452,-25.29835000,28.03580000,4.25996500,-0.01451772
10.76571452,-24.48326000,27.71284000,4.29072300,-0.01301058
10.84571452,-23.42212000,27.03617000,4.27534400,-0.01147269
10.92571453,-22.08415000,25.94427000,4.19845000,-0.00993479
11.00571453,-20.50012000,24.45251000,4.02928100,-0.00851993
11.08571453,-18.67003000,22.51476000,3.78321800,-0.00722810
11.16571453,-16.65539000,20.14641000,3.44488200,-0.00615158
11.24571453,-14.50234000,17.39358000,3.01427100,-0.00529035
11.32571453,-12.24163000,14.31779000,2.50676700,-0.00464444
11.40571453,-9.90403500,10.99594000,1.98388300,-0.00415231
11.48571453,-7.52030000,7.52030000,1.43024100,-0.00375246
11.56571453,-5.05967000,3.98314500,0.92273620,-0.00326034
11.64571453,-2.53752400,0.44598910,0.49212600,-0.00261442
