Time,Channel A,Channel B,Channel C,Channel D
(ns),(mV),(mV),(mV),(V)

-15.55999983,-3.78321800,-4.04466000,0.01537894,0.00784326
-15.47999982,-3.44488200,-4.36761800,0.18454720,0.00784326
-15.39999982,-3.01427100,-4.76747000,0.49212600,0.00787402
-15.31999982,-2.50676700,-5.21345900,0.92273620,0.00790477
-15.23999982,-1.98388300,-5.69020700,1.43024100,0.00790477
-15.15999982,-1.43024100,-6.16695300,1.98388300,0.00790477
-15.07999982,-0.92273620,-6.61294300,2.50676700,0.00790477
-14.99999982,-0.49212600,-7.04355200,3.01427100,0.00787402
-14.91999982,-0.16916830,-7.39726800,3.44488200,0.00784326
-14.83999982,-0.01537894,-7.70484700,3.78321800,0.00784326
-14.75999981,-0.03075787,-7.96628900,4.02928100,0.00784326
-14.67999981,-0.23068400,-8.16621500,4.19845000,0.00784326
-14.59999981,-0.58439960,-8.30462600,4.27534400,0.00787402
-14.51999981,-1.09190400,-8.39689900,4.29072300,0.00790477
-14.43999981,-1.67630400,-8.44303500,4.25996500,0.00790477
-14.35999981,-2.27608300,-8.44303500,4.18307100,0.00790477
-14.27999981,-2.86048200,-8.39689900,4.10617600,0.00790477
-14.19999981,-3.35260800,-8.30462600,4.02928100,0.00787402
-14.11999981,-3.70632400,-8.16621500,3.96776600,0.00784326
-14.03999980,-3.89087100,-7.96628900,3.93700800,0.00784326
-13.95999980,-3.90625000,-7.70484700,3.92162900,0.00784326
-13.87999980,-3.75246000,-7.39726800,3.92162900,0.00784326
-13.79999980,-3.44488200,-7.04355200,3.93700800,0.00787402
-13.71999980,-3.02965000,-6.61294300,3.93700800,0.00790477
-13.63999980,-2.52214600,-6.16695300,3.95238700,0.00790477
-13.55999980,-1.96850400,-5.69020700,3.95238700,0.00790477
-13.47999980,-1.43024100,-5.21345900,3.95238700,0.00790477
-13.39999980,-0.92273620,-4.76747000,3.93700800,0.00787402
-13.31999980,-0.49212600,-4.36761800,3.93700800,0.00784326
-13.23999979,-0.13841040,-4.04466000,3.92162900,0.00784326
-13.15999979,0.10765260,-3.82935500,3.90625000,0.00784326
-13.07999979,0.27682080,-3.70632400,3.89087100,0.00784326
-12.99999979,0.33833660,-3.69094500,3.84473400,0.00787402
-12.91999979,0.35371550,-3.76783900,3.78321800,0.00790477
-12.83999979,0.30757870,-3.89087100,3.72170300,0.00790477
-12.75999979,0.23068400,-4.01390200,3.64480800,0.00790477
-12.67999979,0.15378940,-4.13693400,3.59867100,0.00787402
-12.59999979,0.09227362,-4.18307100,3.59867100,0.00787402
-12.51999978,0.03075787,-4.15231300,3.66018700,0.00784326
-12.43999978,0.00000000,-4.02928100,3.81397600,0.00784326
-12.35999978,0.00000000,-3.78321800,4.06003900,0.00787402
-12.27999978,0.03075787,-3.44488200,4.41375400,0.00793553
-12.19999978,0.09227362,-3.01427100,4.85974400,0.00805856
-12.11999978,0.15378940,-2.52214600,5.38262700,0.00821235
-12.03999978,0.23068400,-1.98388300,5.92089000,0.00836614
-11.95999978,0.30757870,-1.43024100,6.47453200,0.00851993
-11.87999978,0.35371550,-0.92273620,6.96665800,0.00858145
-11.79999977,0.33833660,-0.49212600,7.38188900,0.00855069
-11.71999977,0.27682080,-0.16916830,7.67408900,0.00836614
-11.63999977,0.10765260,-0.01537894,7.82787800,0.00805856
-11.55999977,-0.13841040,-0.03075787,7.82787800,0.00759720
-11.47999977,-0.49212600,-0.23068400,7.67408900,0.00698204
-11.39999977,-0.92273620,-0.58439960,7.38188900,0.00621309
-11.31999977,-1.43024100,-1.09190400,6.96665800,0.00535187
-11.23999977,-1.96850400,-1.67630400,6.47453200,0.00442913
-11.15999977,-2.52214600,-2.27608300,5.92089000,0.00347564
-11.07999977,-3.01427100,-2.86048200,5.38262700,0.00252215
-10.99999976,-3.44488200,-3.35260800,4.85974400,0.00166093
-10.91999976,-3.73708200,-3.70632400,4.41375400,0.00089198
-10.83999976,-3.90625000,-3.89087100,4.06003900,0.00024606
-10.75999976,-3.90625000,-3.89087100,3.81397600,-0.00021531
-10.67999976,-3.73708200,-3.70632400,3.66018700,-0.00052288
-10.59999976,-3.44488200,-3.35260800,3.59867100,-0.00067667
-10.51999976,-3.01427100,-2.86048200,3.59867100,-0.00067667
-10.43999976,-2.52214600,-2.27608300,3.64480800,-0.00061516
-10.35999976,-1.96850400,-1.67630400,3.72170300,-0.00046137
-10.27999975,-1.43024100,-1.09190400,3.78321800,-0.00033834
-10.19999975,-0.93811510,-0.58439960,3.84473400,-0.00018455
-10.11999975,-0.49212600,-0.23068400,3.89087100,-0.00009227
-10.03999975,-0.13841040,-0.03075787,3.92162900,-0.00003076
-9.95999975,0.12303150,-0.01537894,3.92162900,0.00000000
-9.87999975,0.30757870,-0.16916830,3.89087100,0.00003076
-9.79999975,0.43061020,-0.49212600,3.84473400,0.00000000
-9.71999975,0.50750490,-0.92273620,3.78321800,0.00000000
-9.63999975,0.53826270,-1.43024100,3.72170300,0.00000000
-9.55999974,0.53826270,-1.98388300,3.64480800,0.00000000
-9.47999974,0.50750490,-2.50676700,3.59867100,0.00000000
-9.39999974,0.43061020,-3.01427100,3.59867100,0.00000000
-9.31999974,0.30757870,-3.44488200,3.66018700,0.00000000
-9.23999974,0.12303150,-3.78321800,3.81397600,0.00000000
-9.15999974,-0.13841040,-4.02928100,4.06003900,0.00000000
-9.07999974,-0.49212600,-4.19845000,4.41375400,0.00000000
-8.99999974,-0.93811510,-4.27534400,4.85974400,0.00000000
-8.91999974,-1.43024100,-4.29072300,5.38262700,0.00000000
-8.83999974,-1.96850400,-4.25996500,5.92089000,0.00000000
-8.75999973,-2.52214600,-4.18307100,6.47453200,0.00000000
-8.67999973,-3.01427100,-4.10617600,6.96665800,0.00000000
-8.59999973,-3.44488200,-4.02928100,7.38188900,0.00000000
-8.51999973,-3.73708200,-3.96776600,7.67408900,0.00003076
-8.43999973,-3.90625000,-3.93700800,7.82787800,0.00000000
-8.35999973,-3.90625000,-3.92162900,7.81250000,-0.00003076
-8.27999973,-3.73708200,-3.92162900,7.62795300,-0.00009227
-8.19999973,-3.44488200,-3.93700800,7.28961600,-0.00018455
-8.11999973,-3.01427100,-3.93700800,6.79749000,-0.00033834
-8.03999972,-2.52214600,-3.95238700,6.22846900,-0.00046137
-7.95999972,-1.96850400,-3.95238700,5.62869100,-0.00061516
-7.87999972,-1.43024100,-3.95238700,5.02891200,-0.00067667
-7.79999972,-0.92273620,-3.93700800,4.52140800,-0.00067667
-7.71999972,-0.49212600,-3.92162900,4.15231300,-0.00052288
-7.63999972,-0.13841040,-3.92162900,3.95238700,-0.00021531
-7.55999972,0.10765260,-3.92162900,3.95238700,0.00024606
-7.47999972,0.27682080,-3.92162900,4.15231300,0.00089198
-7.39999972,0.33833660,-3.93700800,4.52140800,0.00166093
-7.31999972,0.35371550,-3.95238700,5.02891200,0.00252215
-7.23999971,0.30757870,-3.95238700,5.62869100,0.00347564
-7.15999971,0.23068400,-3.95238700,6.22846900,0.00442913
-7.07999971,0.16916830,-3.95238700,6.79749000,0.00535187
-6.99999971,0.09227362,-3.93700800,7.28961600,0.00621309
-6.91999971,0.04613681,-3.92162900,7.62795300,0.00698204
-6.83999971,0.01537894,-3.92162900,7.81250000,0.00759720
-6.75999971,0.00000000,-3.92162900,7.82787800,0.00805856
-6.67999971,-0.01537894,-3.92162900,7.67408900,0.00836614
-6.59999971,0.00000000,-3.93700800,7.38188900,0.00855069
-6.51999970,0.00000000,-3.95238700,6.96665800,0.00858145
-6.43999970,0.00000000,-3.95238700,6.47453200,0.00851993
-6.35999970,0.00000000,-3.95238700,5.92089000,0.00836614
-6.27999970,0.00000000,-3.95238700,5.38262700,0.00821235
-6.19999970,0.00000000,-3.93700800,4.85974400,0.00805856
-6.11999970,0.01537894,-3.93700800,4.41375400,0.00793553
-6.03999970,0.00000000,-3.92162900,4.06003900,0.00784326
-5.95999970,-0.01537894,-3.90625000,3.81397600,0.00784326
-5.87999970,-0.04613681,-3.89087100,3.66018700,0.00793553
-5.79999969,-0.09227362,-3.84473400,3.59867100,0.00805856
-5.71999969,-0.16916830,-3.78321800,3.59867100,0.00821235
-5.63999969,-0.23068400,-3.72170300,3.64480800,0.00836614
-5.55999969,-0.30757870,-3.64480800,3.72170300,0.00851993
-5.47999969,-0.33833660,-3.59867100,3.78321800,0.00858145
-5.39999969,-0.33833660,-3.59867100,3.82935500,0.00855069
-5.31999969,-0.26144190,-3.66018700,3.87549200,0.00839690
-5.23999969,-0.10765260,-3.81397600,3.90625000,0.00805856
-5.15999969,0.12303150,-4.04466000,3.93700800,0.00756644
-5.07999969,0.44598910,-4.36761800,3.98314500,0.00688976
-4.99999968,0.83046260,-4.76747000,4.04466000,0.00602854
-4.91999968,1.26107300,-5.21345900,4.10617600,0.00501353
-4.83999968,1.73782000,-5.69020700,4.18307100,0.00396777
-4.75999968,2.21456700,-6.16695300,4.25996500,0.00286048
-4.67999968,2.67593500,-6.61294300,4.29072300,0.00184547
-4.59999968,3.10654500,-7.04355200,4.27534400,0.00098425
-4.51999968,3.49101900,-7.39726800,4.19845000,0.00036909
-4.43999968,3.79859700,-7.70484700,4.02928100,0.00003076
-4.35999968,4.02928100,-7.96628900,3.78321800,0.00003076
-4.27999967,4.18307100,-8.16621500,3.44488200,0.00036909
-4.19999967,4.27534400,-8.30462600,3.01427100,0.00098425
-4.11999967,4.29072300,-8.39689900,2.50676700,0.00184547
-4.03999967,4.25996500,-8.44303500,1.98388300,0.00286048
-3.95999967,4.18307100,-8.44303500,1.43024100,0.00396777
-3.87999967,4.10617600,-8.39689900,0.92273620,0.00501353
-3.79999967,4.02928100,-8.28924700,0.49212600,0.00602854
-3.71999967,3.96776600,-8.15083600,0.18454720,0.00688976
-3.63999967,3.92162900,-7.95091000,0.01537894,0.00756644
-3.55999966,3.92162900,-7.72022600,0.01537894,0.00805856
-3.47999966,3.96776600,-7.44340500,0.18454720,0.00839690
-3.39999966,4.02928100,-7.13582600,0.49212600,0.00855069
-3.31999966,4.10617600,-6.78211100,0.92273620,0.00858145
-3.23999966,4.18307100,-6.39763700,1.43024100,0.00851993
-3.15999966,4.25996500,-5.99778500,1.98388300,0.00836614
-3.07999966,4.29072300,-5.55179600,2.52214600,0.00821235
-2.99999966,4.27534400,-5.10580700,3.01427100,0.00805856
-2.91999966,4.18307100,-4.62906000,3.44488200,0.00793553
-2.83999966,4.02928100,-4.15231300,3.78321800,0.00787402
-2.75999965,3.79859700,-3.69094500,4.02928100,0.00784326
-2.67999965,3.49101900,-3.22957700,4.15231300,0.00784326
-2.59999965,3.10654500,-2.76820900,4.18307100,0.00787402
-2.51999965,2.67593500,-2.33759800,4.13693400,0.00787402
-2.43999965,2.21456700,-1.90698800,4.01390200,0.00790477
-2.35999965,1.73782000,-1.50713600,3.89087100,0.00790477
-2.27999965,1.26107300,-1.10728300,3.76783900,0.00787402
-2.19999965,0.83046260,-0.73818890,3.69094500,0.00787402
-2.11999965,0.44598910,-0.39985230,3.70632400,0.00784326
-2.03999964,0.12303150,-0.12303150,3.81397600,0.00784326
-1.95999964,-0.10765260,0.10765260,4.06003900,0.00787402
-1.87999964,-0.26144190,0.24606300,4.39837600,0.00793553
-1.79999964,-0.33833660,0.32295760,4.85974400,0.00805856
-1.71999964,-0.33833660,0.33833660,5.36724900,0.00821235
-1.63999964,-0.30757870,0.30757870,5.92089000,0.00836614
-1.55999964,-0.23068400,0.23068400,6.47453200,0.00851993
-1.47999964,-0.16916830,0.16916830,7.01279500,0.00858145
-1.39999964,-0.09227362,0.09227362,7.50492100,0.00855069
-1.31999963,-0.04613681,0.04613681,7.85863600,0.00839690
-1.23999963,-0.01537894,0.01537894,7.95091000,0.00805856
-1.15999963,0.00000000,0.00000000,7.62795300,0.00756644
-1.07999963,0.01537894,-0.01537894,6.81286900,0.00688976
-0.99999963,0.00000000,0.00000000,5.47490100,0.00602854
-0.91999963,0.00000000,0.00000000,3.72170300,0.00501353
-0.83999963,0.00000000,0.00000000,1.73782000,0.00396777
-0.75999963,0.00000000,0.00000000,-0.15378940,0.00286048
-0.67999963,0.00000000,0.00000000,-1.38410400,0.00184547
-0.59999963,0.00000000,0.00000000,-1.44562000,0.00098425
-0.51999962,-0.01537894,0.00000000,-0.18454720,0.00036909
-0.43999962,0.00000000,0.00000000,2.29146100,0.00003076
-0.35999962,0.01537894,0.00000000,5.75172200,0.00003076
-0.27999962,0.04613681,0.00000000,9.82714000,0.00036909
-0.19999962,0.09227362,0.00000000,14.21014000,0.00098425
-0.11999962,0.16916830,0.00000000,18.74692000,0.00184547
-0.03999962,0.23068400,0.00000000,23.48363000,0.00286048
0.04000038,0.30757870,0.00000000,28.83550000,0.00396777
0.12000038,0.32295760,0.00000000,35.52534000,0.00501353
0.20000039,0.24606300,0.00000000,44.47588000,0.00602854
0.28000039,0.12303150,0.00000000,56.60986000,0.00688976
0.36000039,0.01537894,0.00000000,72.69623000,0.00756644
0.44000039,0.01537894,0.00000000,93.18097000,0.00805856
0.52000039,0.15378940,0.00000000,118.07950000,0.00839690
0.60000039,0.49212600,0.00000000,146.91500000,0.00855069
0.68000039,0.99963080,0.00000000,178.59560000,0.00858145
0.76000039,1.58403000,0.00000000,211.59880000,0.00851993
0.84000039,2.04539800,0.00000000,243.97140000,0.00836614
0.92000039,2.03002000,0.00000000,273.62200000,0.00821235
1.00000040,1.23031500,-0.01537894,298.50510000,0.00802781
1.08000040,-0.36909450,-0.01537894,316.85220000,0.00790477
1.16000040,-2.62979800,-0.01537894,327.38680000,0.00784326
1.24000040,-5.27497500,0.01537894,329.43220000,0.00787402
1.32000040,-8.04318300,0.09227362,323.01920000,0.00799705
1.40000040,-10.67298000,0.18454720,308.83980000,0.00824311
1.48000040,-13.11823000,0.32295760,288.15510000,0.00855069
1.56000040,-15.56348000,0.47674700,262.67220000,0.00885827
1.64000040,-18.45472000,0.61515740,234.23660000,0.00913509
1.72000041,-22.74545000,0.64591530,204.75520000,0.00919661
1.80000041,-29.38915000,0.53826270,175.85810000,0.00901206
1.88000041,-38.89333000,0.32295760,148.86810000,0.00858145
1.96000041,-51.44254000,0.09227362,124.67700000,0.00808932
2.04000041,-66.91375000,-0.06151574,103.63860000,0.00765871
2.12000041,-84.84559000,-0.03075787,85.73756000,0.00744341
2.20000041,-104.65370000,0.24606300,70.58932000,0.00759720
2.28000041,-125.66130000,0.70743110,57.62487000,0.00799705
2.36000041,-147.28410000,1.26107300,46.21370000,0.00851993
2.44000042,-169.16830000,1.66092500,35.77140000,0.00879675
2.52000042,-191.45240000,1.39948300,25.88275000,0.00799705
2.60000042,-214.39780000,0.07689468,16.44008000,0.00553642
2.68000042,-238.05060000,-2.38373500,7.58181600,0.00126107
2.76000042,-262.28780000,-5.84399600,-0.38447340,-0.00452141
2.84000042,-286.90950000,-9.98092900,-7.10506800,-0.01138041
2.92000042,-311.59260000,-14.45620000,-12.22625000,-0.01873155
3.00000042,-335.89140000,-18.97761000,-15.59424000,-0.02608268
3.08000042,-359.34420000,-23.40674000,-17.19365000,-0.03331078
3.16000042,-381.45910000,-27.88201000,-17.27055000,-0.04056964
3.24000043,-401.91310000,-32.89555000,-16.39395000,-0.04868972
3.32000043,-420.59850000,-39.43159000,-15.19439000,-0.05914739
3.40000043,-437.50000000,-48.61282000,-13.99483000,-0.07366510
3.48000043,-452.43290000,-61.02362000,-12.94906000,-0.09325787
3.56000043,-465.19740000,-76.98695000,-12.11860000,-0.11854080
3.64000043,-475.54750000,-96.44131000,-11.44193000,-0.14954480
3.72000043,-483.31380000,-118.98680000,-10.76525000,-0.18571600
3.80000043,-488.32740000,-143.94690000,-9.98092900,-0.22600890
3.88000043,-490.54190000,-170.46010000,-8.98129900,-0.26903910
3.96000044,-490.01900000,-197.71160000,-7.72022600,-0.31333050
4.04000044,-486.89710000,-224.96310000,-6.28998500,-0.35746800
4.12000044,-481.54520000,-251.93770000,-4.81360700,-0.40052900
4.20000044,-474.42480000,-278.48180000,-3.35260800,-0.44186760
4.28000044,-465.90490000,-304.33380000,-1.93774600,-0.48077630
4.36000044,-456.26230000,-329.23230000,-0.61515740,-0.51670150
4.44000044,-445.66620000,-352.93120000,0.58439960,-0.54930480
4.52000044,-434.14740000,-375.19990000,1.69168300,-0.57834030
4.60000044,-421.72120000,-395.76150000,2.67593500,-0.60365400
4.68000045,-408.26460000,-414.38540000,3.56791300,-0.62515380
4.76000045,-393.73150000,-430.84090000,4.38299700,-0.64277800
4.84000045,-377.90660000,-444.94340000,5.13656500,-0.65640380
4.92000045,-360.86670000,-456.70830000,5.84399600,-0.66606180
5.00000045,-342.96560000,-466.12020000,6.48991100,-0.67169050
5.08000045,-324.75700000,-473.07140000,7.08968900,-0.67307450
5.16000045,-306.80980000,-477.40830000,7.61257400,-0.67006030
5.24000045,-289.64690000,-478.94620000,8.04318300,-0.66240160
5.32000045,-273.62200000,-477.60820000,8.35076200,-0.65003690
5.40000045,-258.88900000,-473.31750000,8.51993000,-0.63305850
5.48000046,-245.30940000,-466.15090000,8.56606700,-0.61174330
5.56000046,-232.56030000,-456.30840000,8.51993000,-0.58661420
5.64000046,-219.93420000,-444.05140000,8.38152000,-0.55828620
5.72000046,-206.76980000,-429.84120000,8.21235200,-0.52762060
5.80000046,-192.95950000,-414.26240000,8.05856200,-0.49560160
5.88000046,-178.61100000,-397.85310000,7.93553100,-0.46324430
5.96000046,-164.09320000,-381.05930000,7.85863600,-0.43134840
6.04000046,-149.82160000,-364.21940000,7.84325700,-0.40052900
6.12000046,-136.19590000,-347.48710000,7.87401500,-0.37106300
6.20000047,-123.52360000,-330.89320000,7.95091000,-0.34304260
6.28000047,-111.92790000,-314.33010000,8.04318300,-0.31628320
6.36000047,-101.31640000,-297.64400000,8.13545700,-0.29044660
6.44000047,-91.21247000,-280.46560000,8.21235200,-0.26494830
6.52000047,-81.15465000,-262.62610000,8.22773100,-0.23941930
6.60000047,-71.09682000,-244.38670000,8.21235200,-0.21416710
6.68000047,-61.17741000,-226.16260000,8.12007800,-0.18986840
6.76000047,-51.61171000,-208.50760000,7.95091000,-0.16729210
6.84000047,-42.72268000,-191.89840000,7.72022600,-0.14720720
6.92000048,-34.77177000,-176.70400000,7.41264700,-0.13022880
7.00000048,-27.92815000,-163.13980000,7.04355200,-0.11657230
7.08000048,-22.22256000,-151.11340000,6.62832200,-0.10605320
7.16000048,-17.57812000,-140.37890000,6.16695300,-0.09817913
7.24000048,-13.61036000,-130.27500000,5.69020700,-0.09175074
7.32000048,-9.99630800,-120.21710000,5.21345900,-0.08562992
7.40000048,-6.65908000,-110.14390000,4.76747000,-0.07932456
7.48000048,-3.64480800,-100.20910000,4.36761800,-0.07274237
7.56000048,-1.07652500,-90.73572000,4.04466000,-0.06606791
7.64000048,0.90735720,-82.10814000,3.81397600,-0.05957800
7.72000049,2.13767200,-74.64935000,3.66018700,-0.05367249
7.80000049,2.56828200,-68.59006000,3.59867100,-0.04872047
7.88000049,2.18380900,-63.91486000,3.59867100,-0.04484498
7.96000049,1.12266200,-60.42384000,3.64480800,-0.04201525
8.04000049,-0.36909450,-57.54798000,3.72170300,-0.03983145
8.12000049,-2.03002000,-54.70287000,3.78321800,-0.03783219
8.20000049,-3.73708200,-51.64247000,3.84473400,-0.03586368
8.28000049,-5.42876500,-48.33599000,3.89087100,-0.03395669
8.36000049,-7.05893100,-44.87574000,3.92162900,-0.03217274
8.44000050,-8.62758300,-41.46161000,3.92162900,-0.03066560
8.52000050,-10.18086000,-38.29355000,3.89087100,-0.02949680
8.60000050,-11.74951000,-35.57148000,3.84473400,-0.02875861
8.68000050,-13.34892000,-33.35691000,3.78321800,-0.02854331
8.76000050,-14.99446000,-31.58834000,3.72170300,-0.02869710
8.84000050,-16.62463000,-30.01968000,3.64480800,-0.02912771
8.92000050,-18.23942000,-28.29724000,3.59867100,-0.02955832
9.00000050,-19.80807000,-26.28260000,3.59867100,-0.03001969
9.08000050,-21.34596000,-23.88349000,3.66018700,-0.03051181
9.16000051,-22.82234000,-21.11528000,3.81397600,-0.03106545
9.24000051,-24.22182000,-18.05487000,4.06003900,-0.03174213
9.32000051,-25.52903000,-14.79454000,4.41375400,-0.03257259
9.40000051,-26.69783000,-11.47269000,4.85974400,-0.03358760
9.48000051,-27.74360000,-8.18159400,5.38262700,-0.03475640
9.56000051,-28.63558000,-4.98277500,5.92089000,-0.03604823
9.64000051,-29.38915000,-1.84547200,6.47453200,-0.03724778
9.72000051,-30.00430000,1.27645200,6.96665800,-0.03829355
9.80000051,-30.51181000,4.36761800,7.38188900,-0.03900098
9.88000051,-30.92704000,7.41264700,7.67408900,-0.03937008
9.96000052,-31.25000000,10.35002000,7.82787800,-0.03937008
10.04000052,-31.49606000,13.14899000,7.82787800,-0.03900098
10.12000052,-31.68061000,15.76341000,7.67408900,-0.03829355
10.20000052,-31.77288000,18.16252000,7.38188900,-0.03727854
10.28000052,-31.78826000,20.30020000,6.96665800,-0.03604823
10.36000052,-31.66523000,22.19180000,6.47453200,-0.03460261
10.44000052,-31.40379000,23.82197000,5.92089000,-0.03297244
10.52000052,-30.92704000,25.20608000,5.38262700,-0.03112697
10.60000052,-30.21961000,26.28260000,4.85974400,-0.02912771
10.68000053,-29.28149000,27.02079000,4.41375400,-0.02694390
10.76000053,-28.11270000,27.40526000,4.06003900,-0.02469857
10.84000053,-26.74397000,27.40526000,3.81397600,-0.02236097
10.92000053,-25.20608000,27.02079000,3.66018700,-0.02002338
11.00000053,-23.52977000,26.28260000,3.59867100,-0.01765502
11.08000053,-21.74582000,25.20608000,3.59867100,-0.01531742
11.16000053,-19.85421000,23.82197000,3.64480800,-0.01301058
11.24000053,-17.88570000,22.19180000,3.72170300,-0.01070374
11.32000053,-15.77879000,20.30020000,3.78321800,-0.00833538
11.40000053,-13.57960000,18.16252000,3.84473400,-0.00593627
