Time,Channel A,Channel B,Channel C,Channel D
(ns),(mV),(mV),(mV),(V)

-15.31666683,0.26144190,-3.89087100,4.02928100,0.00006152
-15.23666682,0.79970470,-3.70632400,4.19845000,0.00046137
-15.15666682,1.36872500,-3.35260800,4.27534400,0.00116880
-15.07666682,1.93774600,-2.86048200,4.29072300,0.00218381
-14.99666682,2.52214600,-2.27608300,4.25996500,0.00335261
-14.91666682,3.06040800,-1.67630400,4.18307100,0.00455217
-14.83666682,3.53715500,-1.09190400,4.10617600,0.00572097
-14.75666682,3.87549200,-0.58439960,4.02928100,0.00670522
-14.67666682,4.06003900,-0.21530510,3.96776600,0.00744341
-14.59666682,4.02928100,-0.03075787,3.93700800,0.00781250
-14.51666681,3.75246000,-0.03075787,3.92162900,0.00778174
-14.43666681,3.24495600,-0.21530510,3.92162900,0.00732037
-14.35666681,2.50676700,-0.58439960,3.93700800,0.00652067
-14.27666681,1.58403000,-1.09190400,3.93700800,0.00538263
-14.19666681,0.53826270,-1.67630400,3.95238700,0.00409080
-14.11666681,-0.53826270,-2.27608300,3.95238700,0.00273745
-14.03666681,-1.58403000,-2.86048200,3.95238700,0.00147638
-13.95666681,-2.52214600,-3.35260800,3.93700800,0.00049213
-13.87666681,-3.26033400,-3.72170300,3.92162900,-0.00009227
-13.79666680,-3.76783900,-3.90625000,3.92162900,-0.00015379
-13.71666680,-4.01390200,-3.89087100,3.92162900,0.00030758
-13.63666680,-4.01390200,-3.66018700,3.92162900,0.00132259
-13.55666680,-3.78321800,-3.26033400,3.93700800,0.00282972
-13.47666680,-3.36798700,-2.69131400,3.95238700,0.00470596
-13.39666680,-2.82972400,-2.04539800,3.95238700,0.00682825
-13.31666680,-2.21456700,-1.36872500,3.95238700,0.00898130
-13.23666680,-1.59940900,-0.73818890,3.95238700,0.01107283
-13.15666680,-1.03038900,-0.24606300,3.93700800,0.01291831
-13.07666680,-0.53826270,0.04613681,3.92162900,0.01436393
-12.99666679,-0.15378940,0.07689468,3.92162900,0.01537894
-12.91666679,0.12303150,-0.15378940,3.92162900,0.01587106
-12.83666679,0.32295760,-0.66129420,3.92162900,0.01587106
-12.75666679,0.44598910,-1.41486200,3.93700800,0.01544045
-12.67666679,0.50750490,-2.35297700,3.95238700,0.01464075
-12.59666679,0.53826270,-3.41412400,3.95238700,0.01356422
-12.51666679,0.53826270,-4.49065000,3.95238700,0.01233391
-12.43666679,0.50750490,-5.53641700,3.95238700,0.01107283
-12.35666679,0.43061020,-6.45915300,3.93700800,0.00990404
-12.27666678,0.30757870,-7.18196300,3.92162900,0.00891978
-12.19666678,0.12303150,-7.68946800,3.92162900,0.00815084
-12.11666678,-0.13841040,-7.93553100,3.92162900,0.00759720
-12.03666678,-0.49212600,-7.93553100,3.92162900,0.00728962
-11.95666678,-0.93811510,-7.72022600,3.93700800,0.00716658
-11.87666678,-1.43024100,-7.32037400,3.95238700,0.00719734
-11.79666678,-1.96850400,-6.78211100,3.95238700,0.00728962
-11.71666678,-2.52214600,-6.16695300,3.95238700,0.00744341
-11.63666678,-3.01427100,-5.53641700,3.93700800,0.00756644
-11.55666677,-3.44488200,-4.95201700,3.93700800,0.00768947
-11.47666677,-3.73708200,-4.44451300,3.92162900,0.00778174
-11.39666677,-3.90625000,-4.06003900,3.92162900,0.00781250
-11.31666677,-3.90625000,-3.81397600,3.93700800,0.00784326
-11.23666677,-3.73708200,-3.69094500,3.96776600,0.00787402
-11.15666677,-3.44488200,-3.67556500,4.02928100,0.00787402
-11.07666677,-3.01427100,-3.75246000,4.10617600,0.00790477
-10.99666677,-2.52214600,-3.89087100,4.18307100,0.00790477
-10.91666677,-1.96850400,-4.01390200,4.25996500,0.00790477
-10.83666677,-1.43024100,-4.13693400,4.29072300,0.00790477
-10.75666676,-0.92273620,-4.18307100,4.29072300,0.00787402
-10.67666676,-0.49212600,-4.15231300,4.21382900,0.00784326
-10.59666676,-0.13841040,-4.02928100,4.04466000,0.00784326
-10.51666676,0.10765260,-3.78321800,3.76783900,0.00784326
-10.43666676,0.27682080,-3.44488200,3.39874500,0.00784326
-10.35666676,0.33833660,-3.01427100,2.92199800,0.00787402
-10.27666676,0.35371550,-2.52214600,2.35297700,0.00790477
-10.19666676,0.30757870,-1.98388300,1.73782000,0.00790477
-10.11666676,0.23068400,-1.43024100,1.12266200,0.00790477
-10.03666675,0.15378940,-0.92273620,0.58439960,0.00787402
-9.95666675,0.09227362,-0.49212600,0.15378940,0.00787402
-9.87666675,0.03075787,-0.18454720,-0.09227362,0.00784326
-9.79666675,0.00000000,-0.01537894,-0.09227362,0.00784326
-9.71666675,0.00000000,-0.01537894,0.15378940,0.00787402
-9.63666675,0.03075787,-0.18454720,0.67667320,0.00793553
-9.55666675,0.09227362,-0.49212600,1.41486200,0.00805856
-9.47666675,0.15378940,-0.92273620,2.35297700,0.00821235
-9.39666675,0.23068400,-1.43024100,3.41412400,0.00836614
-9.31666674,0.30757870,-1.98388300,4.49065000,0.00851993
-9.23666674,0.35371550,-2.50676700,5.53641700,0.00858145
-9.15666674,0.35371550,-2.99889300,6.44377400,0.00855069
-9.07666674,0.27682080,-3.41412400,7.18196300,0.00839690
-8.99666674,0.12303150,-3.76783900,7.67408900,0.00805856
-8.91666674,-0.15378940,-4.06003900,7.95091000,0.00756644
-8.83666674,-0.53826270,-4.29072300,7.98166800,0.00688976
-8.75666674,-1.01501000,-4.47527100,7.81250000,0.00602854
-8.67666674,-1.59940900,-4.61368100,7.47416300,0.00501353
-8.59666674,-2.21456700,-4.73671200,7.01279500,0.00396777
-8.51666673,-2.82972400,-4.79822800,6.47453200,0.00286048
-8.43666673,-3.36798700,-4.79822800,5.89013200,0.00184547
-8.35666673,-3.78321800,-4.70595500,5.30573300,0.00098425
-8.27666673,-4.01390200,-4.50602900,4.72133400,0.00033834
-8.19666673,-4.01390200,-4.15231300,4.18307100,0.00003076
-8.11666673,-3.76783900,-3.64480800,3.66018700,0.00006152
-8.03666673,-3.26033400,-2.98351400,3.16806100,0.00046137
-7.95666673,-2.52214600,-2.16843000,2.66055600,0.00116880
-7.87666673,-1.58403000,-1.24569400,2.16843000,0.00218381
-7.79666672,-0.53826270,-0.24606300,1.67630400,0.00335261
-7.71666672,0.53826270,0.78432570,1.19955700,0.00455217
-7.63666672,1.58403000,1.75319900,0.75356790,0.00572097
-7.55666672,2.52214600,2.61441900,0.39985230,0.00670522
-7.47666672,3.26033400,3.30647100,0.13841040,0.00741265
-7.39666672,3.76783900,3.76783900,0.00000000,0.00778174
-7.31666672,4.01390200,4.01390200,0.03075787,0.00778174
-7.23666672,4.01390200,3.99852300,0.23068400,0.00741265
-7.15666672,3.78321800,3.78321800,0.59977850,0.00670522
-7.07666672,3.36798700,3.36798700,1.09190400,0.00572097
-6.99666671,2.82972400,2.82972400,1.67630400,0.00455217
-6.91666671,2.21456700,2.21456700,2.27608300,0.00335261
-6.83666671,1.59940900,1.59940900,2.86048200,0.00218381
-6.75666671,1.01501000,1.01501000,3.35260800,0.00116880
-6.67666671,0.53826270,0.53826270,3.70632400,0.00046137
-6.59666671,0.15378940,0.15378940,3.89087100,0.00006152
-6.51666671,-0.12303150,-0.12303150,3.89087100,0.00003076
-6.43666671,-0.27682080,-0.27682080,3.70632400,0.00033834
-6.35666671,-0.35371550,-0.35371550,3.35260800,0.00098425
-6.27666670,-0.35371550,-0.35371550,2.86048200,0.00184547
-6.19666670,-0.30757870,-0.30757870,2.27608300,0.00286048
-6.11666670,-0.23068400,-0.23068400,1.67630400,0.00396777
-6.03666670,-0.16916830,-0.16916830,1.09190400,0.00501353
-5.95666670,-0.09227362,-0.09227362,0.58439960,0.00599779
-5.87666670,-0.04613681,-0.04613681,0.23068400,0.00685901
-5.79666670,-0.01537894,-0.01537894,0.03075787,0.00756644
-5.71666670,0.00000000,0.00000000,0.01537894,0.00808932
-5.63666670,0.01537894,0.01537894,0.16916830,0.00848917
-5.55666669,0.00000000,0.00000000,0.49212600,0.00873524
-5.47666669,0.00000000,0.00000000,0.92273620,0.00891978
-5.39666669,0.00000000,0.00000000,1.43024100,0.00898130
-5.31666669,0.00000000,0.00000000,1.98388300,0.00898130
-5.23666669,0.00000000,0.00000000,2.50676700,0.00891978
-5.15666669,0.00000000,0.00000000,3.01427100,0.00873524
-5.07666669,0.00000000,0.00000000,3.44488200,0.00848917
-4.99666669,0.00000000,0.00000000,3.78321800,0.00808932
-4.91666669,0.00000000,0.00000000,4.02928100,0.00756644
-4.83666669,0.00000000,0.00000000,4.19845000,0.00685901
-4.75666668,0.00000000,0.00000000,4.27534400,0.00599779
-4.67666668,0.00000000,0.00000000,4.29072300,0.00501353
-4.59666668,0.00000000,0.00000000,4.25996500,0.00396777
-4.51666668,0.00000000,0.00000000,4.18307100,0.00286048
-4.43666668,0.00000000,0.00000000,4.10617600,0.00184547
-4.35666668,0.00000000,0.00000000,4.04466000,0.00101501
-4.27666668,0.00000000,-0.01537894,3.98314500,0.00039985
-4.19666668,0.00000000,0.00000000,3.93700800,0.00006152
-4.11666668,0.00000000,0.01537894,3.90625000,0.00003076
-4.03666667,0.00000000,0.04613681,3.87549200,0.00027682
-3.95666667,0.00000000,0.09227362,3.82935500,0.00079970
-3.87666667,0.00000000,0.16916830,3.78321800,0.00153789
-3.79666667,0.00000000,0.23068400,3.72170300,0.00239911
-3.71666667,0.00000000,0.30757870,3.64480800,0.00335261
-3.63666667,0.00000000,0.33833660,3.59867100,0.00433686
-3.55666667,0.00000000,0.33833660,3.59867100,0.00535187
-3.47666667,-0.01537894,0.26144190,3.66018700,0.00633612
-3.39666667,0.00000000,0.10765260,3.81397600,0.00735113
-3.31666666,0.01537894,-0.12303150,4.06003900,0.00833538
-3.23666666,0.04613681,-0.44598910,4.41375400,0.00938115
-3.15666666,0.09227362,-0.83046260,4.85974400,0.01039616
-3.07666666,0.16916830,-1.26107300,5.38262700,0.01144193
-2.99666666,0.23068400,-1.73782000,5.92089000,0.01245694
-2.91666666,0.30757870,-2.21456700,6.47453200,0.01341043
-2.83666666,0.33833660,-2.67593500,6.96665800,0.01424090
-2.75666666,0.33833660,-3.10654500,7.38188900,0.01491757
-2.67666666,0.26144190,-3.49101900,7.67408900,0.01540969
-2.59666666,0.10765260,-3.79859700,7.82787800,0.01565576
-2.51666665,-0.12303150,-4.02928100,7.82787800,0.01565576
-2.43666665,-0.44598910,-4.18307100,7.67408900,0.01540969
-2.35666665,-0.83046260,-4.27534400,7.38188900,0.01491757
-2.27666665,-1.26107300,-4.29072300,6.96665800,0.01424090
-2.19666665,-1.73782000,-4.25996500,6.47453200,0.01341043
-2.11666665,-2.21456700,-4.18307100,5.92089000,0.01245694
-2.03666665,-2.67593500,-4.10617600,5.38262700,0.01144193
-1.95666665,-3.10654500,-4.02928100,4.87512300,0.01039616
-1.87666665,-3.47564000,-3.96776600,4.42913300,0.00938115
-1.79666664,-3.78321800,-3.93700800,4.07541800,0.00833538
-1.71666664,-4.04466000,-3.92162900,3.78321800,0.00735113
-1.63666664,-4.22920700,-3.92162900,3.56791300,0.00633612
-1.55666664,-4.36761800,-3.93700800,3.39874500,0.00535187
-1.47666664,-4.44451300,-3.93700800,3.27571300,0.00433686
-1.39666664,-4.49065000,-3.95238700,3.16806100,0.00335261
-1.31666664,-4.49065000,-3.95238700,3.10654500,0.00239911
-1.23666664,-4.44451300,-3.93700800,3.18344000,0.00153789
-1.15666664,-4.36761800,-3.93700800,3.47564000,0.00079970
-1.07666663,-4.22920700,-3.92162900,3.82935500,0.00027682
-0.99666663,-4.04466000,-3.92162900,3.99852300,0.00003076
-0.91666663,-3.78321800,-3.93700800,3.70632400,0.00006152
-0.83666663,-3.47564000,-3.96776600,2.75283000,0.00039985
-0.75666663,-3.10654500,-4.02928100,1.04576800,0.00101501
-0.67666663,-2.67593500,-4.10617600,-1.30720900,0.00184547
-0.59666663,-2.21456700,-4.18307100,-3.93700800,0.00286048
-0.51666663,-1.73782000,-4.25996500,-6.22846900,0.00396777
-0.43666663,-1.27645200,-4.29072300,-7.22810000,0.00501353
-0.35666663,-0.84584150,-4.27534400,-5.95164800,0.00602854
-0.27666662,-0.47674700,-4.19845000,-1.61478800,0.00688976
-0.19666662,-0.15378940,-4.02928100,6.35150100,0.00756644
-0.11666662,0.13841040,-3.78321800,18.14714000,0.00805856
-0.03666662,0.38447340,-3.44488200,33.63373000,0.00839690
0.04333338,0.61515740,-3.01427100,52.33452000,0.00855069
0.12333338,0.83046260,-2.50676700,73.41904000,0.00858145
0.20333338,1.01501000,-1.98388300,95.88766000,0.00851993
0.28333338,1.15342000,-1.43024100,118.61770000,0.00836614
0.36333338,1.13804100,-0.92273620,140.54810000,0.00821235
0.44333339,0.90735720,-0.49212600,160.78680000,0.00805856
0.52333339,0.53826270,-0.18454720,178.64170000,0.00793553
0.60333339,0.15378940,-0.01537894,193.65160000,0.00787402
0.68333339,-0.09227362,-0.01537894,205.67790000,0.00784326
0.76333339,-0.04613681,-0.18454720,214.79760000,0.00784326
0.84333339,0.35371550,-0.49212600,221.21060000,0.00787402
0.92333339,1.06114600,-0.92273620,225.20910000,0.00787402
1.00333339,1.89160900,-1.43024100,227.05460000,0.00790477
1.08333339,2.49138800,-1.98388300,226.91620000,0.00790477
1.16333339,2.18380900,-2.52214600,224.84000000,0.00787402
1.24333340,0.35371550,-3.02965000,220.68770000,0.00781250
1.32333340,-3.22957700,-3.47564000,214.30550000,0.00778174
1.40333340,-8.53530900,-3.81397600,205.44720000,0.00778174
1.48333340,-15.33280000,-3.99852300,193.95910000,0.00793553
1.56333340,-23.22219000,-4.02928100,179.76440000,0.00821235
1.64333340,-31.83440000,-3.89087100,163.01670000,0.00864296
1.72333340,-40.86183000,-3.64480800,144.06990000,0.00919661
1.80333340,-50.22760000,-3.30647100,123.50820000,0.00981176
1.88333340,-60.13164000,-2.96813500,102.13150000,0.01033465
1.96333341,-71.32750000,-2.79896600,80.84706000,0.01051919
2.04333341,-84.64566000,-2.93737700,60.57763000,0.01015010
2.12333341,-100.53210000,-3.30647100,42.19980000,0.00931964
2.20333341,-119.14060000,-3.73708200,26.40563000,0.00830463
2.28333341,-140.36360000,-4.04466000,13.61036000,0.00744341
2.36333341,-163.80110000,-4.01390200,3.96776600,0.00707431
2.44333341,-188.85330000,-3.55253400,-2.67593500,0.00732037
2.52333341,-214.79760000,-2.69131400,-6.75135300,0.00812008
2.60333341,-240.91100000,-1.67630400,-8.84288800,0.00916585
2.68333342,-266.59390000,-0.93811510,-9.75024500,0.00965797
2.76333342,-291.67690000,-1.33796700,-10.18086000,0.00833538
2.84333342,-316.11400000,-3.67556500,-10.53457000,0.00393701
2.92333342,-339.62840000,-8.28924700,-10.98056000,-0.00418307
3.00333342,-361.97400000,-15.28666000,-11.51882000,-0.01614788
3.08333342,-382.87400000,-24.43713000,-11.98019000,-0.03177289
3.16333342,-402.05150000,-35.38693000,-12.13398000,-0.05038140
3.24333342,-419.26060000,-47.61319000,-11.79564000,-0.07126600
3.32333342,-434.25500000,-60.68528000,-10.85753000,-0.09365772
3.40333342,-446.92720000,-74.31102000,-9.31963500,-0.11700290
3.48333343,-457.23110000,-88.50578000,-7.41264700,-0.14114790
3.56333343,-465.33580000,-103.77710000,-5.44414400,-0.16664620
3.64333343,-471.50280000,-120.78620000,-3.58329200,-0.19420520
3.72333343,-475.76280000,-139.84070000,-1.93774600,-0.22428640
3.80333343,-478.10040000,-161.12510000,-0.56902060,-0.25710510
3.88333343,-478.43870000,-184.54720000,0.50750490,-0.29266120
3.96333343,-476.67010000,-209.76870000,1.30720900,-0.33055490
4.04333343,-472.67160000,-236.23580000,1.89160900,-0.37007870
4.12333343,-466.39700000,-263.27200000,2.32221900,-0.41021780
4.20333344,-457.90780000,-290.12360000,2.64517700,-0.44983390
4.28333344,-447.28100000,-316.06790000,2.92199800,-0.48769690
4.36333344,-434.85480000,-340.72030000,3.16806100,-0.52282230
4.44333344,-421.13680000,-363.75800000,3.38336600,-0.55431840
4.52333344,-406.63450000,-384.78100000,3.61405000,-0.58132380
4.60333344,-391.80910000,-403.46640000,3.82935500,-0.60310040
4.68333344,-377.03000000,-419.55270000,4.01390200,-0.61924830
4.76333344,-362.48150000,-432.87090000,4.15231300,-0.62958290
4.84333344,-348.19450000,-443.32860000,4.25996500,-0.63419660
4.92333345,-334.04590000,-450.89500000,4.29072300,-0.63348920
5.00333345,-319.80500000,-455.64710000,4.25996500,-0.62798350
5.08333345,-305.01040000,-457.70790000,4.18307100,-0.61835630
5.16333345,-289.33930000,-457.30800000,4.10617600,-0.60528420
5.24333345,-272.93000000,-454.70900000,4.02928100,-0.58953620
5.32333345,-256.16700000,-450.04920000,3.96776600,-0.57160430
5.40333345,-239.52690000,-443.39010000,3.93700800,-0.55182700
5.48333345,-223.53280000,-434.73180000,3.92162900,-0.53035800
5.56333345,-208.59990000,-424.05880000,3.92162900,-0.50725880
5.64333345,-194.92800000,-411.37120000,3.93700800,-0.48249880
5.72333346,-182.53260000,-396.74580000,3.93700800,-0.45610850
5.80333346,-171.15220000,-380.30570000,3.95238700,-0.42821110
5.88333346,-160.07930000,-362.25090000,3.95238700,-0.39892960
5.96333346,-148.69890000,-342.96560000,3.95238700,-0.36860240
6.04333346,-136.84180000,-323.03460000,3.93700800,-0.33809050
6.12333346,-124.55400000,-303.11880000,3.92162900,-0.30825540
6.20333346,-112.09710000,-283.83360000,3.92162900,-0.28001970
6.28333346,-99.80930000,-265.62500000,3.92162900,-0.25409080
6.36333346,-88.04441000,-248.76970000,3.92162900,-0.23099160
6.44333347,-77.07922000,-233.32920000,3.93700800,-0.21075290
6.52333347,-67.05216000,-219.11910000,3.95238700,-0.19322100
6.60333347,-57.94783000,-205.81630000,3.95238700,-0.17778050
6.68333347,-49.42790000,-192.77500000,3.95238700,-0.16344730
6.76333347,-41.15403000,-179.53370000,3.95238700,-0.14932950
6.84333347,-33.17236000,-166.06180000,3.93700800,-0.13524240
6.92333347,-25.63669000,-152.62060000,3.92162900,-0.12137060
7.00333347,-18.77768000,-139.59460000,3.92162900,-0.10817540
7.08333347,-12.85679000,-127.39910000,3.92162900,-0.09614912
7.16333348,-8.07394100,-116.43390000,3.92162900,-0.08581447
7.24333348,-4.53678600,-106.91440000,3.93700800,-0.07744832
7.32333348,-2.19918800,-98.85580000,3.95238700,-0.07114296
7.40333348,-0.90735720,-92.05831000,3.95238700,-0.06659079
7.48333348,-0.29219980,-85.90674000,3.95238700,-0.06302288
7.56333348,0.03075787,-79.84743000,3.95238700,-0.05967028
7.64333348,0.19992620,-73.71124000,3.93700800,-0.05622539
7.72333348,0.24606300,-67.59042000,3.92162900,-0.05259597
7.80333348,0.13841040,-61.65416000,3.92162900,-0.04890502
7.88333348,-0.21530510,-56.17925000,3.92162900,-0.04530635
7.96333349,-0.90735720,-51.42716000,3.92162900,-0.04201525
8.04333349,-2.03002000,-47.56705000,3.93700800,-0.03930856
8.12333349,-3.58329200,-44.64505000,3.95238700,-0.03721703
8.20333349,-5.49028000,-42.52276000,3.95238700,-0.03574065
8.28333349,-7.61257400,-40.80032000,3.95238700,-0.03463336
8.36333349,-9.71948700,-39.06250000,3.95238700,-0.03367987
8.44333349,-11.71875000,-37.12475000,3.93700800,-0.03278789
8.52333349,-13.51808000,-34.94094000,3.92162900,-0.03204970
8.60333349,-15.04060000,-32.58797000,3.92162900,-0.03152682
8.68333350,-16.25554000,-30.18885000,3.92162900,-0.03131152
8.76333350,-17.14751000,-27.91277000,3.92162900,-0.03149606
8.84333350,-17.74729000,-25.86737000,3.93700800,-0.03208046
8.92333350,-18.11639000,-24.14493000,3.95238700,-0.03306472
9.00333350,-18.28555000,-22.69931000,3.95238700,-0.03435655
9.08333350,-18.36245000,-21.31520000,3.95238700,-0.03570989
9.16333350,-18.40859000,-19.79269000,3.95238700,-0.03694021
9.24333350,-18.54700000,-17.97798000,3.93700800,-0.03795522
9.32333350,-18.82382000,-15.77879000,3.92162900,-0.03869341
9.40333351,-19.30056000,-13.19513000,3.92162900,-0.03912402
9.48333351,-19.97724000,-10.25775000,3.92162900,-0.03924705
9.56333351,-20.83846000,-7.04355200,3.92162900,-0.03912402
9.64333351,-21.83809000,-3.62942900,3.93700800,-0.03878568
9.72333351,-22.92999000,-0.13841040,3.95238700,-0.03826280
9.80333351,-24.02190000,3.33722900,3.95238700,-0.03761688
9.88333351,-25.03691000,6.73597400,3.95238700,-0.03678642
9.96333351,-25.91351000,10.02707000,3.95238700,-0.03580217
10.04333351,-26.62094000,13.13361000,3.93700800,-0.03463336
10.12333351,-27.11306000,15.97871000,3.92162900,-0.03337229
10.20333352,-27.38988000,18.50086000,3.92162900,-0.03204970
10.28333352,-27.46678000,20.63853000,3.92162900,-0.03069636
10.36333352,-27.37451000,22.37635000,3.92162900,-0.02937377
10.44333352,-27.12844000,23.72970000,3.93700800,-0.02805118
10.52333352,-26.74397000,24.71395000,3.95238700,-0.02675935
10.60333352,-26.22109000,25.35987000,3.95238700,-0.02546752
10.68333352,-25.52903000,25.69820000,3.95238700,-0.02411417
10.76333352,-24.65244000,25.75972000,3.95238700,-0.02260704
10.84333352,-23.51439000,25.52903000,3.93700800,-0.02088460
10.92333353,-22.13029000,24.97539000,3.93700800,-0.01894685
11.00333353,-20.50012000,24.09879000,3.92162900,-0.01682456
11.08333353,-18.67003000,22.88386000,3.90625000,-0.01451772
11.16333353,-16.65539000,21.34596000,3.89087100,-0.01211860
11.24333353,-14.48696000,19.48511000,3.84473400,-0.00962722
11.32333353,-12.24163000,17.36282000,3.78321800,-0.00713583
11.40333353,-9.90403500,15.00984000,3.72170300,-0.00464444
11.48333353,-7.52030000,12.48770000,3.64480800,-0.00218381
11.56333353,-5.05967000,9.84251900,3.59867100,0.00024606
11.64333353,-2.53752400,7.08968900,3.59867100,0.00261442
11.72333354,0.04613681,4.27534400,3.66018700,0.00482899
