Time,Channel A,Channel B,Channel C,Channel D
(ns),(mV),(mV),(mV),(V)

-15.24637683,-0.13841040,-3.92162900,7.81250000,0.00784326
-15.16637682,-0.49212600,-3.93700800,7.62795300,0.00784326
-15.08637682,-0.93811510,-3.93700800,7.28961600,0.00787402
-15.00637682,-1.43024100,-3.95238700,6.79749000,0.00790477
-14.92637682,-1.96850400,-3.95238700,6.22846900,0.00790477
-14.84637682,-2.52214600,-3.95238700,5.62869100,0.00790477
-14.76637682,-3.01427100,-3.95238700,5.02891200,0.00790477
-14.68637682,-3.44488200,-3.93700800,4.52140800,0.00787402
-14.60637682,-3.73708200,-3.92162900,4.15231300,0.00784326
-14.52637682,-3.90625000,-3.92162900,3.95238700,0.00784326
-14.44637681,-3.90625000,-3.92162900,3.95238700,0.00784326
-14.36637681,-3.73708200,-3.92162900,4.15231300,0.00784326
-14.28637681,-3.44488200,-3.93700800,4.52140800,0.00787402
-14.20637681,-3.01427100,-3.95238700,5.02891200,0.00790477
-14.12637681,-2.52214600,-3.95238700,5.62869100,0.00790477
-14.04637681,-1.96850400,-3.95238700,6.22846900,0.00790477
-13.96637681,-1.43024100,-3.95238700,6.79749000,0.00790477
-13.88637681,-0.93811510,-3.93700800,7.27423700,0.00787402
-13.80637681,-0.49212600,-3.93700800,7.61257400,0.00784326
-13.72637680,-0.13841040,-3.92162900,7.81250000,0.00784326
-13.64637680,0.12303150,-3.90625000,7.84325700,0.00784326
-13.56637680,0.30757870,-3.89087100,7.72022600,0.00784326
-13.48637680,0.43061020,-3.84473400,7.47416300,0.00787402
-13.40637680,0.50750490,-3.78321800,7.13582600,0.00790477
-13.32637680,0.53826270,-3.72170300,6.70521600,0.00790477
-13.24637680,0.53826270,-3.64480800,6.22846900,0.00790477
-13.16637680,0.50750490,-3.59867100,5.72096400,0.00787402
-13.08637680,0.43061020,-3.59867100,5.19808000,0.00787402
-13.00637680,0.30757870,-3.66018700,4.69057600,0.00784326
-12.92637679,0.12303150,-3.81397600,4.16769200,0.00784326
-12.84637679,-0.13841040,-4.06003900,3.67556500,0.00787402
-12.76637679,-0.49212600,-4.41375400,3.16806100,0.00793553
-12.68637679,-0.93811510,-4.85974400,2.67593500,0.00805856
-12.60637679,-1.43024100,-5.38262700,2.16843000,0.00821235
-12.52637679,-1.96850400,-5.92089000,1.67630400,0.00836614
-12.44637679,-2.52214600,-6.47453200,1.19955700,0.00851993
-12.36637679,-3.01427100,-6.96665800,0.75356790,0.00858145
-12.28637679,-3.44488200,-7.38188900,0.39985230,0.00855069
-12.20637678,-3.73708200,-7.67408900,0.13841040,0.00839690
-12.12637678,-3.90625000,-7.82787800,0.00000000,0.00805856
-12.04637678,-3.90625000,-7.82787800,0.03075787,0.00756644
-11.96637678,-3.73708200,-7.67408900,0.23068400,0.00688976
-11.88637678,-3.44488200,-7.38188900,0.59977850,0.00602854
-11.80637678,-3.01427100,-6.96665800,1.09190400,0.00501353
-11.72637678,-2.52214600,-6.47453200,1.67630400,0.00396777
-11.64637678,-1.96850400,-5.92089000,2.27608300,0.00286048
-11.56637678,-1.43024100,-5.38262700,2.86048200,0.00184547
-11.48637677,-0.92273620,-4.85974400,3.35260800,0.00098425
-11.40637677,-0.49212600,-4.41375400,3.70632400,0.00033834
-11.32637677,-0.13841040,-4.06003900,3.89087100,0.00003076
-11.24637677,0.10765260,-3.81397600,3.89087100,0.00006152
-11.16637677,0.27682080,-3.66018700,3.70632400,0.00046137
-11.08637677,0.33833660,-3.59867100,3.35260800,0.00116880
-11.00637677,0.35371550,-3.59867100,2.86048200,0.00218381
-10.92637677,0.30757870,-3.64480800,2.27608300,0.00335261
-10.84637677,0.23068400,-3.72170300,1.67630400,0.00455217
-10.76637677,0.16916830,-3.78321800,1.09190400,0.00572097
-10.68637676,0.09227362,-3.84473400,0.58439960,0.00670522
-10.60637676,0.04613681,-3.89087100,0.23068400,0.00741265
-10.52637676,0.01537894,-3.90625000,0.03075787,0.00778174
-10.44637676,0.00000000,-3.92162900,0.01537894,0.00778174
-10.36637676,-0.01537894,-3.93700800,0.16916830,0.00741265
-10.28637676,0.00000000,-3.93700800,0.49212600,0.00670522
-10.20637676,0.00000000,-3.95238700,0.92273620,0.00572097
-10.12637676,0.00000000,-3.95238700,1.43024100,0.00455217
-10.04637676,0.00000000,-3.95238700,1.98388300,0.00335261
-9.96637675,0.00000000,-3.95238700,2.50676700,0.00218381
-9.88637675,0.00000000,-3.93700800,3.01427100,0.00116880
-9.80637675,-0.01537894,-3.92162900,3.44488200,0.00046137
-9.72637675,0.00000000,-3.92162900,3.78321800,0.00006152
-9.64637675,0.01537894,-3.92162900,4.02928100,0.00003076
-9.56637675,0.04613681,-3.92162900,4.19845000,0.00033834
-9.48637675,0.09227362,-3.93700800,4.27534400,0.00098425
-9.40637675,0.16916830,-3.95238700,4.29072300,0.00184547
-9.32637675,0.23068400,-3.95238700,4.25996500,0.00286048
-9.24637674,0.30757870,-3.95238700,4.18307100,0.00396777
-9.16637674,0.35371550,-3.95238700,4.10617600,0.00501353
-9.08637674,0.33833660,-3.93700800,4.02928100,0.00599779
-9.00637674,0.27682080,-3.92162900,3.96776600,0.00685901
-8.92637674,0.10765260,-3.92162900,3.92162900,0.00756644
-8.84637674,-0.13841040,-3.92162900,3.92162900,0.00808932
-8.76637674,-0.49212600,-3.92162900,3.96776600,0.00848917
-8.68637674,-0.92273620,-3.93700800,4.02928100,0.00873524
-8.60637674,-1.43024100,-3.95238700,4.10617600,0.00891978
-8.52637674,-1.96850400,-3.95238700,4.18307100,0.00898130
-8.44637673,-2.52214600,-3.95238700,4.25996500,0.00898130
-8.36637673,-3.02965000,-3.95238700,4.29072300,0.00888903
-8.28637673,-3.44488200,-3.93700800,4.27534400,0.00873524
-8.20637673,-3.75246000,-3.92162900,4.19845000,0.00845842
-8.12637673,-3.90625000,-3.92162900,4.02928100,0.00808932
-8.04637673,-3.89087100,-3.92162900,3.78321800,0.00756644
-7.96637673,-3.70632400,-3.92162900,3.44488200,0.00695128
-7.88637673,-3.35260800,-3.93700800,3.01427100,0.00621309
-7.80637673,-2.86048200,-3.95238700,2.50676700,0.00535187
-7.72637672,-2.27608300,-3.95238700,1.98388300,0.00442913
-7.64637672,-1.67630400,-3.95238700,1.43024100,0.00347564
-7.56637672,-1.09190400,-3.95238700,0.92273620,0.00255290
-7.48637672,-0.58439960,-3.93700800,0.49212600,0.00166093
-7.40637672,-0.23068400,-3.92162900,0.18454720,0.00092274
-7.32637672,-0.03075787,-3.92162900,0.01537894,0.00027682
-7.24637672,-0.01537894,-3.92162900,0.01537894,-0.00024606
-7.16637672,-0.16916830,-3.92162900,0.18454720,-0.00061516
-7.08637672,-0.49212600,-3.93700800,0.49212600,-0.00086122
-7.00637672,-0.92273620,-3.95238700,0.92273620,-0.00101501
-6.92637671,-1.43024100,-3.95238700,1.43024100,-0.00107653
-6.84637671,-1.98388300,-3.95238700,1.98388300,-0.00107653
-6.76637671,-2.50676700,-3.95238700,2.50676700,-0.00101501
-6.68637671,-2.99889300,-3.93700800,3.01427100,-0.00086122
-6.60637671,-3.42950300,-3.92162900,3.44488200,-0.00061516
-6.52637671,-3.78321800,-3.92162900,3.78321800,-0.00024606
-6.44637671,-4.04466000,-3.92162900,4.02928100,0.00027682
-6.36637671,-4.24458600,-3.92162900,4.19845000,0.00092274
-6.28637671,-4.36761800,-3.93700800,4.27534400,0.00166093
-6.20637670,-4.45989200,-3.95238700,4.29072300,0.00255290
-6.12637670,-4.49065000,-3.95238700,4.25996500,0.00347564
-6.04637670,-4.49065000,-3.95238700,4.18307100,0.00442913
-5.96637670,-4.44451300,-3.95238700,4.10617600,0.00535187
-5.88637670,-4.36761800,-3.93700800,4.02928100,0.00621309
-5.80637670,-4.22920700,-3.92162900,3.96776600,0.00698204
-5.72637670,-4.04466000,-3.92162900,3.93700800,0.00759720
-5.64637670,-3.78321800,-3.92162900,3.92162900,0.00805856
-5.56637670,-3.47564000,-3.92162900,3.92162900,0.00836614
-5.48637669,-3.10654500,-3.93700800,3.93700800,0.00855069
-5.40637669,-2.67593500,-3.95238700,3.93700800,0.00858145
-5.32637669,-2.21456700,-3.95238700,3.95238700,0.00851993
-5.24637669,-1.73782000,-3.95238700,3.95238700,0.00836614
-5.16637669,-1.26107300,-3.95238700,3.95238700,0.00821235
-5.08637669,-0.83046260,-3.93700800,3.93700800,0.00805856
-5.00637669,-0.44598910,-3.92162900,3.92162900,0.00793553
-4.92637669,-0.12303150,-3.92162900,3.92162900,0.00787402
-4.84637669,0.10765260,-3.92162900,3.92162900,0.00784326
-4.76637669,0.26144190,-3.92162900,3.92162900,0.00784326
-4.68637668,0.33833660,-3.93700800,3.93700800,0.00787402
-4.60637668,0.33833660,-3.95238700,3.95238700,0.00787402
-4.52637668,0.30757870,-3.95238700,3.95238700,0.00790477
-4.44637668,0.23068400,-3.95238700,3.95238700,0.00790477
-4.36637668,0.16916830,-3.95238700,3.95238700,0.00790477
-4.28637668,0.09227362,-3.93700800,3.93700800,0.00787402
-4.20637668,0.04613681,-3.92162900,3.92162900,0.00784326
-4.12637668,0.01537894,-3.92162900,3.92162900,0.00784326
-4.04637668,0.00000000,-3.92162900,3.92162900,0.00784326
-3.96637667,-0.01537894,-3.92162900,3.92162900,0.00784326
-3.88637667,0.00000000,-3.93700800,3.93700800,0.00787402
-3.80637667,0.00000000,-3.95238700,3.95238700,0.00790477
-3.72637667,0.00000000,-3.95238700,3.95238700,0.00790477
-3.64637667,0.00000000,-3.95238700,3.95238700,0.00790477
-3.56637667,0.00000000,-3.93700800,3.95238700,0.00790477
-3.48637667,0.00000000,-3.93700800,3.93700800,0.00787402
-3.40637667,0.01537894,-3.92162900,3.93700800,0.00784326
-3.32637667,0.00000000,-3.92162900,3.92162900,0.00784326
-3.24637666,-0.01537894,-3.93700800,3.90625000,0.00784326
-3.16637666,-0.04613681,-3.96776600,3.89087100,0.00784326
-3.08637666,-0.09227362,-4.02928100,3.84473400,0.00787402
-3.00637666,-0.16916830,-4.10617600,3.78321800,0.00790477
-2.92637666,-0.23068400,-4.18307100,3.72170300,0.00790477
-2.84637666,-0.30757870,-4.25996500,3.64480800,0.00790477
-2.76637666,-0.35371550,-4.29072300,3.59867100,0.00790477
-2.68637666,-0.33833660,-4.27534400,3.58329200,0.00787402
-2.60637666,-0.27682080,-4.18307100,3.64480800,0.00784326
-2.52637666,-0.10765260,-4.02928100,3.79859700,0.00784326
-2.44637665,0.13841040,-3.79859700,4.07541800,0.00784326
-2.36637665,0.49212600,-3.49101900,4.45989200,0.00784326
-2.28637665,0.92273620,-3.10654500,4.95201700,0.00787402
-2.20637665,1.43024100,-2.67593500,5.53641700,0.00790477
-2.12637665,1.96850400,-2.21456700,6.16695300,0.00790477
-2.04637665,2.52214600,-1.73782000,6.78211100,0.00790477
-1.96637665,3.01427100,-1.26107300,7.32037400,0.00790477
-1.88637665,3.44488200,-0.83046260,7.75098400,0.00787402
-1.80637665,3.73708200,-0.44598910,7.99704600,0.00784326
-1.72637664,3.90625000,-0.12303150,7.96628900,0.00784326
-1.64637664,3.90625000,0.10765260,7.64333200,0.00784326
-1.56637664,3.73708200,0.26144190,6.96665800,0.00784326
-1.48637664,3.44488200,0.33833660,5.98240600,0.00787402
-1.40637664,3.01427100,0.33833660,4.72133400,0.00790477
-1.32637664,2.52214600,0.30757870,3.30647100,0.00790477
-1.24637664,1.96850400,0.23068400,1.89160900,0.00790477
-1.16637664,1.43024100,0.16916830,0.76894680,0.00787402
-1.08637664,0.92273620,0.09227362,0.18454720,0.00787402
-1.00637663,0.47674700,0.04613681,0.03075787,0.00784326
-0.92637663,0.13841040,0.01537894,0.04613681,0.00784326
-0.84637663,-0.10765260,0.00000000,-0.13841040,0.00787402
-0.76637663,-0.23068400,-0.01537894,-0.84584150,0.00793553
-0.68637663,-0.24606300,0.00000000,-2.24532500,0.00805856
-0.60637663,-0.18454720,0.00000000,-4.27534400,0.00821235
-0.52637663,-0.06151574,0.00000000,-6.52066900,0.00836614
-0.44637663,0.06151574,0.00000000,-8.18159400,0.00851993
-0.36637663,0.16916830,0.00000000,-8.07394100,0.00858145
-0.28637663,0.21530510,0.00000000,-4.84436500,0.00855069
-0.20637662,0.18454720,-0.01537894,2.61441900,0.00839690
-0.12637662,0.07689468,0.00000000,15.17901000,0.00805856
-0.04637662,-0.07689468,0.01537894,33.29539000,0.00756644
0.03362338,-0.26144190,0.04613681,56.85593000,0.00688976
0.11362338,-0.44598910,0.09227362,85.21468000,0.00602854
0.19362338,-0.61515740,0.16916830,117.17210000,0.00501353
0.27362338,-0.78432570,0.23068400,151.14420000,0.00396777
0.35362338,-0.99963080,0.30757870,185.22390000,0.00286048
0.43362338,-1.36872500,0.35371550,217.51970000,0.00184547
0.51362339,-2.01464100,0.33833660,246.26290000,0.00098425
0.59362339,-2.81434500,0.27682080,270.00800000,0.00036909
0.67362339,-3.59867100,0.10765260,287.73990000,0.00003076
0.75362339,-4.15231300,-0.13841040,298.98190000,0.00003076
0.83362339,-4.29072300,-0.49212600,303.79550000,0.00036909
0.91362339,-3.89087100,-0.92273620,302.67290000,0.00098425
0.99362339,-3.02965000,-1.43024100,296.50590000,0.00184547
1.07362339,-1.96850400,-1.96850400,286.35580000,0.00286048
1.15362339,-1.18417800,-2.52214600,273.29910000,0.00396777
1.23362339,-1.50713600,-3.02965000,258.33540000,0.00501353
1.31362340,-3.76783900,-3.49101900,242.26440000,0.00593627
1.39362340,-8.33538300,-3.81397600,225.59360000,0.00673597
1.47362340,-15.28666000,-3.95238700,208.61530000,0.00747416
1.55362340,-24.43713000,-3.82935500,191.39090000,0.00821235
1.63362340,-35.37155000,-3.39874500,173.84350000,0.00901206
1.71362340,-47.61319000,-2.67593500,155.85010000,0.00987328
1.79362340,-60.68528000,-1.72244100,137.34930000,0.01085753
1.87362340,-74.31102000,-0.63053640,118.41780000,0.01184178
1.95362340,-88.50578000,0.46136810,99.28641000,0.01264149
2.03362341,-103.79240000,1.23031500,80.32418000,0.01285679
2.11362341,-120.84770000,1.43024100,62.08476000,0.01221088
2.19362341,-139.94830000,1.10728300,45.18331000,0.01076526
2.27362341,-161.18660000,0.41523130,30.17347000,0.00885827
2.35362341,-184.43960000,-0.39985230,17.51661000,0.00688976
2.43362341,-209.33810000,-1.09190400,7.45878400,0.00532111
2.51362341,-235.29770000,-1.46099900,0.00000000,0.00439838
2.59362341,-261.65720000,-1.52251500,-5.10580700,0.00409080
2.67362341,-287.75520000,-1.52251500,-8.30462600,0.00393701
2.75362342,-313.02290000,-1.96850400,-10.30389000,0.00307579
2.83362342,-337.30620000,-3.79859700,-11.78026000,-0.00012303
2.91362342,-360.49760000,-7.99704600,-13.05672000,-0.00728962
2.99362342,-382.30500000,-15.07136000,-14.24089000,-0.01931594
3.07362342,-402.48210000,-25.20608000,-15.28666000,-0.03654036
3.15362342,-420.70620000,-38.24741000,-15.99409000,-0.05880905
3.23362342,-436.71560000,-53.81090000,-16.14788000,-0.08547613
3.31362342,-450.29520000,-71.29675000,-15.57886000,-0.11555730
3.39362342,-461.30660000,-90.08981000,-14.22552000,-0.14794540
3.47362342,-469.71880000,-109.66720000,-12.13398000,-0.18171750
3.55362343,-475.57820000,-129.70590000,-9.62721400,-0.21622790
3.63362343,-479.23840000,-150.42140000,-7.04355200,-0.25150710
3.71362343,-481.03780000,-172.15180000,-4.61368100,-0.28789370
3.79362343,-481.19150000,-195.02030000,-2.47600900,-0.32551060
3.87362343,-479.79210000,-219.02680000,-0.72281000,-0.36445000
3.95362343,-476.88540000,-244.04830000,0.61515740,-0.40461980
4.03362343,-472.37940000,-269.79270000,1.58403000,-0.44565080
4.11362343,-466.19710000,-295.82920000,2.22994600,-0.48695870
4.19362343,-458.21540000,-321.55820000,2.66055600,-0.52774360
4.27362344,-448.38820000,-346.41050000,2.95275600,-0.56686760
4.35362344,-436.66950000,-369.77110000,3.16806100,-0.60325420
4.43362344,-423.21300000,-391.28630000,3.32185000,-0.63579600
4.51362344,-408.43380000,-410.64830000,3.49101900,-0.66357030
4.59362344,-392.79340000,-427.44210000,3.66018700,-0.68556230
4.67362344,-376.75320000,-441.36010000,3.84473400,-0.70097200
4.75362344,-360.69760000,-452.14070000,3.99852300,-0.70930730
4.83362344,-344.88800000,-459.61490000,4.10617600,-0.71041460
4.91362344,-329.41680000,-463.76720000,4.15231300,-0.70450910
4.99362345,-314.20700000,-464.67460000,4.12155500,-0.69223670
5.07362345,-299.07420000,-462.53690000,4.01390200,-0.67439720
5.15362345,-283.52610000,-457.63100000,3.89087100,-0.65206690
5.23362345,-267.22440000,-450.40290000,3.76783900,-0.62644560
5.31362345,-250.29220000,-441.25240000,3.69094500,-0.59870200
5.39362345,-233.09850000,-430.50260000,3.70632400,-0.56978960
5.47362345,-216.13560000,-418.38400000,3.82935500,-0.54035430
5.55362345,-199.88000000,-405.00430000,4.04466000,-0.51082680
5.63362345,-184.77790000,-390.40970000,4.36761800,-0.48136070
5.71362345,-171.02910000,-374.60010000,4.76747000,-0.45183320
5.79362346,-158.63370000,-357.57560000,5.21345900,-0.42212100
5.87362346,-147.37630000,-339.39770000,5.69020700,-0.39203990
5.95362346,-136.59570000,-320.11260000,6.16695300,-0.36137430
6.03362346,-125.66130000,-299.98150000,6.61294300,-0.33015500
6.11362346,-114.45000000,-279.55830000,7.02817400,-0.29902800
6.19362346,-103.06960000,-259.47340000,7.39726800,-0.26888530
6.27362346,-91.79687000,-240.40350000,7.70484700,-0.24061890
6.35362346,-80.95472000,-222.87150000,7.96628900,-0.21515130
6.43362346,-70.91228000,-207.16960000,8.19697300,-0.19297490
6.51362347,-61.90022000,-193.39010000,8.39689900,-0.17436640
6.59362347,-54.01082000,-181.33300000,8.56606700,-0.15901820
6.67362347,-47.18258000,-170.59850000,8.68909800,-0.14637670
6.75362347,-40.96949000,-160.41770000,8.75061400,-0.13518090
6.83362347,-34.97170000,-150.15990000,8.75061400,-0.12426180
6.91362347,-29.11233000,-139.68690000,8.64296200,-0.11331200
6.99362347,-23.45288000,-129.10620000,8.42765700,-0.10226990
7.07362347,-18.14714000,-118.74080000,8.07394100,-0.09147391
7.15362347,-13.39505000,-108.95980000,7.56643700,-0.08135457
7.23362348,-9.36577200,-100.13220000,6.92052100,-0.07243479
7.31362348,-6.21309000,-92.50430000,6.10543700,-0.06505290
7.39362348,-3.92162900,-86.12204000,5.18270100,-0.05933194
7.47362348,-2.42987200,-80.83169000,4.19845000,-0.05514887
7.55362348,-1.47637800,-76.12574000,3.16806100,-0.05185778
7.63362348,-0.78432570,-71.45053000,2.18380900,-0.04884350
7.71362348,-0.27682080,-66.66769000,1.32258800,-0.04592150
7.79362348,0.01537894,-61.83870000,0.61515740,-0.04309178
7.87362348,0.07689468,-57.13275000,0.13841040,-0.04041585
7.95362348,-0.16916830,-52.81126000,-0.07689468,-0.03813976
8.03362349,-0.83046260,-49.08956000,-0.03075787,-0.03641732
8.11362349,-1.90698800,-46.13681000,0.26144190,-0.03537155
8.19362349,-3.41412400,-43.98376000,0.73818890,-0.03506397
8.27362349,-5.25959600,-42.47662000,1.36872500,-0.03540231
8.35362349,-7.30499500,-41.23093000,2.04539800,-0.03607899
8.43362349,-9.36577200,-39.81606000,2.70669300,-0.03681717
8.51362349,-11.38041000,-38.01673000,3.26033400,-0.03752461
8.59362349,-13.25664000,-35.70989000,3.67556500,-0.03817052
8.67362349,-14.93295000,-32.92630000,3.89087100,-0.03884719
8.75362350,-16.37857000,-29.75824000,3.89087100,-0.03961614
8.83362350,-17.59350000,-26.34412000,3.67556500,-0.04053888
8.91362350,-18.57775000,-22.86848000,3.26033400,-0.04167692
8.99362350,-19.37746000,-19.40822000,2.70669300,-0.04299951
9.07362350,-20.02337000,-16.04023000,2.04539800,-0.04441437
9.15362350,-20.57702000,-12.70300000,1.36872500,-0.04576772
9.23362350,-21.08452000,-9.25812000,0.73818890,-0.04687500
9.31362350,-21.63816000,-5.67482800,0.24606300,-0.04755167
9.39362350,-22.29946000,-1.93774600,-0.04613681,-0.04776698
9.47362351,-23.08378000,1.93774600,-0.07689468,-0.04742864
9.55362351,-24.02190000,5.92089000,0.15378940,-0.04656742
9.63362351,-25.11380000,9.95017100,0.66129420,-0.04515256
9.71362351,-26.29798000,13.93332000,1.41486200,-0.04330709
9.79362351,-27.54367000,17.82419000,2.35297700,-0.04106176
9.87362351,-28.74323000,21.54589000,3.41412400,-0.03853961
9.95362351,-29.83514000,25.02153000,4.49065000,-0.03583292
10.03362351,-30.71173000,28.17421000,5.53641700,-0.03297244
10.11362351,-31.32689000,30.91166000,6.45915300,-0.03011196
10.19362351,-31.60371000,33.12623000,7.18196300,-0.02731299
10.27362352,-31.54220000,34.74102000,7.68946800,-0.02472933
10.35362352,-31.12697000,35.69451000,7.93553100,-0.02239173
10.43362352,-30.40416000,36.00209000,7.93553100,-0.02039247
10.51362352,-29.40452000,35.67913000,7.72022600,-0.01863927
10.59362352,-28.14345000,34.78716000,7.32037400,-0.01716289
10.67362352,-26.69783000,33.41843000,6.78211100,-0.01587106
10.75362352,-25.05229000,31.64985000,6.16695300,-0.01464075
10.83362352,-23.23757000,29.54294000,5.53641700,-0.01337968
10.91362352,-21.23831000,27.09768000,4.95201700,-0.01196481
10.99362353,-19.10064000,24.32948000,4.45989200,-0.01039616
11.07362353,-16.83994000,21.25369000,4.07541800,-0.00870448
11.15362353,-14.51772000,17.88570000,3.79859700,-0.00695128
11.23362353,-12.14936000,14.25627000,3.64480800,-0.00516732
11.31362353,-9.79638200,10.36540000,3.58329200,-0.00344488
11.39362353,-7.44340500,6.28998500,3.59867100,-0.00178396
11.47362353,-5.10580700,2.10691400,3.64480800,-0.00021531
11.55362353,-2.79896600,-2.10691400,3.72170300,0.00129183
11.63362353,-0.44598910,-6.30536400,3.78321800,0.00276821
11.71362353,1.92236700,-10.41154000,3.84473400,0.00427534
