Time,Channel A,Channel B,Channel C,Channel D
(ns),(mV),(mV),(mV),(V)

-15.30566083,0.01537894,-3.69094500,7.93553100,0.00787402
-15.22566082,0.04613681,-3.22957700,7.93553100,0.00793553
-15.14566082,0.09227362,-2.76820900,7.72022600,0.00805856
-15.06566082,0.16916830,-2.33759800,7.32037400,0.00821235
-14.98566082,0.23068400,-1.90698800,6.78211100,0.00836614
-14.90566082,0.30757870,-1.50713600,6.16695300,0.00851993
-14.82566082,0.33833660,-1.10728300,5.53641700,0.00858145
-14.74566082,0.33833660,-0.73818890,4.96739600,0.00855069
-14.66566082,0.26144190,-0.39985230,4.47527100,0.00836614
-14.58566082,0.10765260,-0.12303150,4.07541800,0.00805856
-14.50566081,-0.12303150,0.10765260,3.79859700,0.00759720
-14.42566081,-0.44598910,0.24606300,3.59867100,0.00698204
-14.34566081,-0.83046260,0.32295760,3.49101900,0.00621309
-14.26566081,-1.26107300,0.33833660,3.42950300,0.00535187
-14.18566081,-1.73782000,0.30757870,3.41412400,0.00442913
-14.10566081,-2.21456700,0.23068400,3.41412400,0.00347564
-14.02566081,-2.67593500,0.16916830,3.42950300,0.00252215
-13.94566081,-3.10654500,0.09227362,3.50639700,0.00166093
-13.86566081,-3.47564000,0.04613681,3.61405000,0.00089198
-13.78566080,-3.78321800,0.01537894,3.79859700,0.00024606
-13.70566080,-4.04466000,0.00000000,4.06003900,-0.00021531
-13.62566080,-4.22920700,-0.01537894,4.42913300,-0.00052288
-13.54566080,-4.36761800,0.00000000,4.87512300,-0.00067667
-13.46566080,-4.44451300,0.00000000,5.38262700,-0.00067667
-13.38566080,-4.49065000,0.00000000,5.92089000,-0.00061516
-13.30566080,-4.49065000,0.00000000,6.47453200,-0.00046137
-13.22566080,-4.45989200,0.00000000,6.96665800,-0.00030758
-13.14566080,-4.36761800,-0.01537894,7.38188900,-0.00018455
-13.06566080,-4.24458600,-0.01537894,7.67408900,-0.00006152
-12.98566079,-4.04466000,-0.01537894,7.82787800,0.00000000
-12.90566079,-3.78321800,0.01537894,7.82787800,0.00000000
-12.82566079,-3.42950300,0.09227362,7.67408900,-0.00006152
-12.74566079,-2.99889300,0.18454720,7.38188900,-0.00018455
-12.66566079,-2.50676700,0.32295760,6.96665800,-0.00030758
-12.58566079,-1.98388300,0.47674700,6.47453200,-0.00046137
-12.50566079,-1.43024100,0.61515740,5.92089000,-0.00061516
-12.42566079,-0.92273620,0.69205210,5.38262700,-0.00070743
-12.34566079,-0.49212600,0.67667320,4.85974400,-0.00067667
-12.26566078,-0.16916830,0.53826270,4.41375400,-0.00055364
-12.18566078,-0.01537894,0.21530510,4.06003900,-0.00021531
-12.10566078,-0.03075787,-0.26144190,3.81397600,0.00027682
-12.02566078,-0.23068400,-0.93811510,3.66018700,0.00098425
-11.94566078,-0.58439960,-1.75319900,3.59867100,0.00184547
-11.86566078,-1.09190400,-2.70669300,3.59867100,0.00286048
-11.78566078,-1.67630400,-3.70632400,3.64480800,0.00393701
-11.70566078,-2.27608300,-4.73671200,3.72170300,0.00504429
-11.62566078,-2.86048200,-5.69020700,3.78321800,0.00602854
-11.54566077,-3.35260800,-6.53604800,3.84473400,0.00688976
-11.46566077,-3.70632400,-7.21272100,3.89087100,0.00747416
-11.38566077,-3.89087100,-7.68946800,3.90625000,0.00781250
-11.30566077,-3.90625000,-7.93553100,3.92162900,0.00781250
-11.22566077,-3.75246000,-7.98166800,3.93700800,0.00747416
-11.14566077,-3.44488200,-7.81250000,3.93700800,0.00688976
-11.06566077,-3.02965000,-7.47416300,3.95238700,0.00602854
-10.98566077,-2.52214600,-7.01279500,3.95238700,0.00504429
-10.90566077,-1.96850400,-6.47453200,3.95238700,0.00393701
-10.82566077,-1.43024100,-5.89013200,3.95238700,0.00286048
-10.74566076,-0.92273620,-5.30573300,3.93700800,0.00184547
-10.66566076,-0.49212600,-4.73671200,3.92162900,0.00098425
-10.58566076,-0.13841040,-4.19845000,3.92162900,0.00027682
-10.50566076,0.10765260,-3.66018700,3.92162900,-0.00021531
-10.42566076,0.27682080,-3.12192400,3.92162900,-0.00055364
-10.34566076,0.33833660,-2.56828200,3.93700800,-0.00067667
-10.26566076,0.35371550,-1.99926200,3.95238700,-0.00070743
-10.18566076,0.30757870,-1.43024100,3.95238700,-0.00061516
-10.10566076,0.23068400,-0.89197830,3.95238700,-0.00046137
-10.02566075,0.16916830,-0.41523130,3.93700800,-0.00033834
-9.94566075,0.09227362,-0.04613681,3.93700800,-0.00018455
-9.86566075,0.04613681,0.13841040,3.92162900,-0.00009227
-9.78566075,0.01537894,0.10765260,3.92162900,-0.00003076
-9.70566075,0.00000000,-0.16916830,3.93700800,0.00000000
-9.62566075,-0.01537894,-0.72281000,3.96776600,0.00003076
-9.54566075,0.00000000,-1.52251500,4.02928100,0.00000000
-9.46566075,0.00000000,-2.52214600,4.10617600,0.00000000
-9.38566075,0.00000000,-3.64480800,4.18307100,0.00000000
-9.30566074,0.00000000,-4.79822800,4.25996500,0.00000000
-9.22566074,0.00000000,-5.89013200,4.29072300,0.00000000
-9.14566074,0.00000000,-6.79749000,4.29072300,0.00000000
-9.06566074,-0.01537894,-7.45878400,4.21382900,0.00003076
-8.98566074,0.00000000,-7.81250000,4.04466000,0.00000000
-8.90566074,0.01537894,-7.79712100,3.76783900,-0.00003076
-8.82566074,0.04613681,-7.41264700,3.39874500,-0.00009227
-8.74566074,0.09227362,-6.70521600,2.92199800,-0.00018455
-8.66566074,0.16916830,-5.72096400,2.35297700,-0.00033834
-8.58566074,0.23068400,-4.56754400,1.73782000,-0.00046137
-8.50566073,0.30757870,-3.33722900,1.12266200,-0.00061516
-8.42566073,0.33833660,-2.16843000,0.58439960,-0.00067667
-8.34566073,0.33833660,-1.16879900,0.15378940,-0.00067667
-8.26566073,0.26144190,-0.44598910,-0.09227362,-0.00052288
-8.18566073,0.10765260,-0.06151574,-0.09227362,-0.00021531
-8.10566073,-0.12303150,-0.04613681,0.15378940,0.00024606
-8.02566073,-0.44598910,-0.38447340,0.67667320,0.00089198
-7.94566073,-0.83046260,-1.07652500,1.41486200,0.00166093
-7.86566073,-1.26107300,-2.01464100,2.35297700,0.00252215
-7.78566072,-1.73782000,-3.10654500,3.41412400,0.00347564
-7.70566072,-2.21456700,-4.25996500,4.49065000,0.00442913
-7.62566072,-2.67593500,-5.36724900,5.53641700,0.00535187
-7.54566072,-3.10654500,-6.35150100,6.45915300,0.00621309
-7.46566072,-3.47564000,-7.13582600,7.18196300,0.00698204
-7.38566072,-3.78321800,-7.67408900,7.68946800,0.00759720
-7.30566072,-4.04466000,-7.95091000,7.93553100,0.00805856
-7.22566072,-4.22920700,-7.99704600,7.93553100,0.00836614
-7.14566072,-4.36761800,-7.82787800,7.72022600,0.00855069
-7.06566072,-4.44451300,-7.47416300,7.32037400,0.00858145
-6.98566071,-4.49065000,-7.01279500,6.78211100,0.00851993
-6.90566071,-4.49065000,-6.47453200,6.16695300,0.00836614
-6.82566071,-4.45989200,-5.89013200,5.53641700,0.00821235
-6.74566071,-4.36761800,-5.30573300,4.95201700,0.00805856
-6.66566071,-4.24458600,-4.72133400,4.45989200,0.00793553
-6.58566071,-4.04466000,-4.18307100,4.07541800,0.00787402
-6.50566071,-3.78321800,-3.66018700,3.79859700,0.00784326
-6.42566071,-3.42950300,-3.16806100,3.64480800,0.00784326
-6.34566071,-2.99889300,-2.66055600,3.58329200,0.00787402
-6.26566070,-2.50676700,-2.16843000,3.59867100,0.00787402
-6.18566070,-1.98388300,-1.67630400,3.64480800,0.00790477
-6.10566070,-1.43024100,-1.19955700,3.72170300,0.00790477
-6.02566070,-0.92273620,-0.76894680,3.78321800,0.00787402
-5.94566070,-0.49212600,-0.39985230,3.84473400,0.00787402
-5.86566070,-0.16916830,-0.13841040,3.89087100,0.00784326
-5.78566070,-0.01537894,-0.01537894,3.90625000,0.00784326
-5.70566070,-0.03075787,-0.03075787,3.92162900,0.00787402
-5.62566070,-0.23068400,-0.19992620,3.93700800,0.00793553
-5.54566069,-0.58439960,-0.50750490,3.93700800,0.00805856
-5.46566069,-1.09190400,-0.92273620,3.95238700,0.00821235
-5.38566069,-1.67630400,-1.43024100,3.95238700,0.00836614
-5.30566069,-2.27608300,-1.98388300,3.95238700,0.00851993
-5.22566069,-2.86048200,-2.50676700,3.95238700,0.00858145
-5.14566069,-3.35260800,-3.01427100,3.93700800,0.00855069
-5.06566069,-3.70632400,-3.44488200,3.92162900,0.00839690
-4.98566069,-3.89087100,-3.78321800,3.92162900,0.00805856
-4.90566069,-3.90625000,-4.02928100,3.92162900,0.00756644
-4.82566069,-3.75246000,-4.19845000,3.92162900,0.00688976
-4.74566068,-3.44488200,-4.27534400,3.93700800,0.00602854
-4.66566068,-3.02965000,-4.29072300,3.95238700,0.00501353
-4.58566068,-2.52214600,-4.25996500,3.95238700,0.00396777
-4.50566068,-1.96850400,-4.18307100,3.95238700,0.00286048
-4.42566068,-1.43024100,-4.10617600,3.95238700,0.00184547
-4.34566068,-0.92273620,-4.02928100,3.93700800,0.00098425
-4.26566068,-0.49212600,-3.96776600,3.92162900,0.00036909
-4.18566068,-0.13841040,-3.93700800,3.92162900,0.00003076
-4.10566068,0.10765260,-3.92162900,3.92162900,0.00003076
-4.02566067,0.27682080,-3.92162900,3.92162900,0.00036909
-3.94566067,0.33833660,-3.93700800,3.93700800,0.00098425
-3.86566067,0.35371550,-3.93700800,3.95238700,0.00184547
-3.78566067,0.30757870,-3.95238700,3.95238700,0.00286048
-3.70566067,0.23068400,-3.95238700,3.95238700,0.00396777
-3.62566067,0.16916830,-3.93700800,3.95238700,0.00501353
-3.54566067,0.09227362,-3.93700800,3.93700800,0.00599779
-3.46566067,0.04613681,-3.92162900,3.92162900,0.00685901
-3.38566067,0.01537894,-3.92162900,3.92162900,0.00756644
-3.30566066,0.00000000,-3.93700800,3.92162900,0.00808932
-3.22566066,-0.01537894,-3.96776600,3.92162900,0.00848917
-3.14566066,0.00000000,-4.02928100,3.93700800,0.00873524
-3.06566066,0.00000000,-4.10617600,3.95238700,0.00891978
-2.98566066,0.00000000,-4.18307100,3.95238700,0.00898130
-2.90566066,0.00000000,-4.25996500,3.95238700,0.00898130
-2.82566066,0.00000000,-4.29072300,3.93700800,0.00891978
-2.74566066,0.00000000,-4.27534400,3.93700800,0.00873524
-2.66566066,0.00000000,-4.18307100,3.92162900,0.00848917
-2.58566066,0.00000000,-4.02928100,3.92162900,0.00808932
-2.50566065,0.00000000,-3.79859700,3.93700800,0.00756644
-2.42566065,0.00000000,-3.49101900,3.96776600,0.00685901
-2.34566065,0.00000000,-3.10654500,4.02928100,0.00599779
-2.26566065,0.00000000,-2.67593500,4.10617600,0.00501353
-2.18566065,0.00000000,-2.21456700,4.18307100,0.00396777
-2.10566065,0.00000000,-1.73782000,4.25996500,0.00286048
-2.02566065,0.00000000,-1.27645200,4.29072300,0.00184547
-1.94566065,0.00000000,-0.83046260,4.29072300,0.00098425
-1.86566065,0.00000000,-0.46136810,4.21382900,0.00036909
-1.78566064,0.00000000,-0.13841040,4.04466000,0.00003076
-1.70566064,0.00000000,0.12303150,3.76783900,0.00003076
-1.62566064,0.00000000,0.30757870,3.35260800,0.00036909
-1.54566064,0.00000000,0.43061020,2.81434500,0.00098425
-1.46566064,0.00000000,0.50750490,2.18380900,0.00184547
-1.38566064,0.00000000,0.53826270,1.50713600,0.00286048
-1.30566064,0.00000000,0.53826270,0.83046260,0.00396777
-1.22566064,0.00000000,0.50750490,0.33833660,0.00501353
-1.14566064,0.00000000,0.43061020,0.16916830,0.00602854
-1.06566063,0.00000000,0.30757870,0.16916830,0.00688976
-0.98566063,0.00000000,0.12303150,0.12303150,0.00756644
-0.90566063,0.00000000,-0.13841040,-0.24606300,0.00805856
-0.82566063,0.00000000,-0.49212600,-1.21493600,0.00839690
-0.74566063,0.00000000,-0.93811510,-2.87586100,0.00855069
-0.66566063,0.00000000,-1.43024100,-5.13656500,0.00858145
-0.58566063,0.00000000,-1.96850400,-7.64333200,0.00851993
-0.50566063,0.00000000,-2.52214600,-9.71948700,0.00836614
-0.42566063,-0.01537894,-3.02965000,-10.41154000,0.00821235
-0.34566063,-0.03075787,-3.44488200,-8.64296200,0.00805856
-0.26566062,-0.04613681,-3.75246000,-3.52177600,0.00793553
-0.18566062,-0.03075787,-3.90625000,5.59793300,0.00784326
-0.10566062,0.04613681,-3.89087100,19.02374000,0.00784326
-0.02566062,0.16916830,-3.70632400,36.69414000,0.00793553
0.05433938,0.38447340,-3.35260800,58.07086000,0.00805856
0.13433938,0.64591530,-2.86048200,82.21579000,0.00821235
0.21433938,0.95349410,-2.27608300,107.96010000,0.00836614
0.29433938,1.21493600,-1.67630400,133.87360000,0.00851993
0.37433938,1.32258800,-1.09190400,158.58760000,0.00858145
0.45433939,1.13804100,-0.58439960,180.81020000,0.00855069
0.53433939,0.73818890,-0.23068400,199.54170000,0.00839690
0.61433939,0.23068400,-0.03075787,214.07480000,0.00805856
0.69433939,-0.19992620,-0.01537894,224.10190000,0.00756644
0.77433939,-0.39985230,-0.16916830,229.69980000,0.00688976
0.85433939,-0.27682080,-0.49212600,231.19150000,0.00602854
0.93433939,0.12303150,-0.92273620,229.19230000,0.00501353
1.01433939,0.63053640,-1.43024100,224.33260000,0.00396777
1.09433939,0.87659940,-1.98388300,217.25820000,0.00286048
1.17433939,0.18454720,-2.52214600,208.50760000,0.00181472
1.25433940,-2.09153500,-3.04502900,198.46520000,0.00092274
1.33433940,-6.21309000,-3.49101900,187.33080000,0.00027682
1.41433940,-12.11860000,-3.81397600,175.15070000,-0.00003076
1.49433940,-19.60814000,-3.98314500,161.89410000,0.00015379
1.57433940,-28.26648000,-3.93700800,147.48400000,0.00079970
1.65433940,-37.67839000,-3.70632400,131.92050000,0.00193775
1.73433940,-47.53629000,-3.32185000,115.29590000,0.00347564
1.81433940,-57.71715000,-2.82972400,97.88693000,0.00522884
1.89433940,-68.45164000,-2.36835600,80.12425000,0.00698204
1.97433941,-80.43184000,-2.12229300,62.54613000,0.00833538
2.05433941,-94.53432000,-2.30684000,45.81385000,0.00888903
2.13433941,-111.15900000,-2.82972400,30.58870000,0.00876599
2.21433941,-130.52100000,-3.55253400,17.43971000,0.00818159
2.29433941,-152.51290000,-4.24458600,6.75135300,0.00753568
2.37433941,-176.76550000,-4.69057600,-1.30720900,0.00713583
2.45433941,-202.63290000,-4.73671200,-6.79749000,0.00728962
2.53433941,-229.40760000,-4.41375400,-10.01169000,0.00790477
2.61433941,-256.29000000,-3.96776600,-11.45731000,0.00864296
2.69433942,-282.66490000,-3.84473400,-11.81102000,0.00873524
2.77433942,-308.24000000,-4.95201700,-11.74951000,0.00676673
2.85433942,-332.87710000,-8.15083600,-11.62648000,0.00132259
2.93433942,-356.25310000,-13.87180000,-11.61110000,-0.00839690
3.01433942,-378.07570000,-22.28408000,-11.70337000,-0.02260704
3.09433942,-398.05300000,-33.23388000,-11.81102000,-0.04118479
3.17433942,-415.92330000,-46.33673000,-11.71875000,-0.06348425
3.25433942,-431.45610000,-61.06976000,-11.25738000,-0.08870571
3.33433942,-444.52810000,-76.89468000,-10.35002000,-0.11589570
3.41433942,-455.06270000,-93.41166000,-8.93516300,-0.14431590
3.49433943,-463.10590000,-110.39000000,-7.24347900,-0.17350520
3.57433943,-468.93450000,-128.12190000,-5.47490100,-0.20364790
3.65433943,-472.82540000,-147.00720000,-3.73708200,-0.23526700
3.73433943,-474.88620000,-167.21520000,-2.10691400,-0.26851620
3.81433943,-475.16300000,-188.77640000,-0.66129420,-0.30348800
3.89433943,-473.59430000,-211.58340000,0.61515740,-0.34015130
3.97433943,-470.08800000,-235.32850000,1.72244100,-0.37813730
4.05433943,-464.56690000,-259.58110000,2.70669300,-0.41680000
4.13433943,-456.92360000,-283.75670000,3.58329200,-0.45533960
4.21433944,-447.21950000,-307.28650000,4.38299700,-0.49274110
4.29433944,-435.50070000,-329.64750000,5.13656500,-0.52786670
4.37433944,-422.05950000,-350.50130000,5.84399600,-0.55985480
4.45433944,-407.40340000,-369.63270000,6.48991100,-0.58790600
4.53433944,-392.03990000,-386.73410000,7.08968900,-0.61109750
4.61433944,-376.46100000,-401.49790000,7.61257400,-0.62878320
4.69433944,-361.03590000,-413.69340000,8.05856200,-0.64056350
4.77433944,-345.99530000,-423.13600000,8.39689900,-0.64622290
4.85433944,-331.38530000,-429.74900000,8.61220400,-0.64597680
4.93433945,-317.08290000,-433.54760000,8.73523500,-0.64019440
5.01433945,-302.85740000,-434.65490000,8.75061400,-0.62949070
5.09433945,-288.18590000,-433.22460000,8.68909800,-0.61466530
5.17433945,-272.73010000,-429.62600000,8.56606700,-0.59654900
5.25433945,-256.58220000,-424.18180000,8.39689900,-0.57600270
5.33433945,-240.09590000,-417.16900000,8.19697300,-0.55364170
5.41433945,-223.71740000,-408.72600000,7.96628900,-0.52998890
5.49433945,-207.95400000,-398.96040000,7.70484700,-0.50529030
5.57433945,-193.22090000,-387.85680000,7.39726800,-0.47963830
5.65433945,-179.74900000,-375.43060000,7.02817400,-0.45303270
5.73433946,-167.53810000,-361.65110000,6.61294300,-0.42547370
5.81433946,-156.35760000,-346.56430000,6.16695300,-0.39689960
5.89433946,-145.57700000,-330.21650000,5.69020700,-0.36734130
5.97433946,-134.56570000,-312.80760000,5.21345900,-0.33695250
6.05433946,-123.18530000,-294.84500000,4.76747000,-0.30647150
6.13433946,-111.54340000,-276.86700000,4.36761800,-0.27669780
6.21433946,-99.87081000,-259.41190000,4.04466000,-0.24855440
6.29433946,-88.53653000,-242.94110000,3.81397600,-0.22277930
6.37433946,-77.84818000,-227.71590000,3.66018700,-0.19986470
6.45433947,-68.09793000,-213.79800000,3.59867100,-0.17996430
6.53433947,-59.36269000,-201.07960000,3.59867100,-0.16286290
6.61433947,-51.61171000,-189.25320000,3.64480800,-0.14806840
6.69433947,-44.44513000,-177.71900000,3.72170300,-0.13456570
6.77433947,-37.50923000,-166.01560000,3.78321800,-0.12140130
6.85433947,-30.77325000,-154.14310000,3.84473400,-0.10845230
6.93433947,-24.32948000,-142.33200000,3.89087100,-0.09581078
7.01433947,-18.39321000,-130.93630000,3.90625000,-0.08393824
7.09433947,-13.19513000,-120.35560000,3.92162900,-0.07332677
7.17433948,-8.88902600,-110.97440000,3.93700800,-0.06446850
7.25433948,-5.62869100,-102.96200000,3.93700800,-0.05767101
7.33433948,-3.39874500,-96.31828000,3.95238700,-0.05290354
7.41433948,-2.06077700,-90.82800000,3.95238700,-0.04998155
7.49433948,-1.30720900,-85.89136000,3.95238700,-0.04804380
7.57433948,-0.79970470,-80.97009000,3.93700800,-0.04635211
7.65433948,-0.43061020,-75.86429000,3.93700800,-0.04453740
7.73433948,-0.16916830,-70.58932000,3.92162900,-0.04253814
7.81433948,-0.01537894,-65.31434000,3.92162900,-0.04035433
7.89433948,-0.04613681,-60.28543000,3.93700800,-0.03810900
7.97433949,-0.35371550,-55.73326000,3.96776600,-0.03607899
8.05433949,-0.99963080,-51.84239000,4.02928100,-0.03441806
8.13433949,-1.98388300,-48.67433000,4.10617600,-0.03321850
8.21433949,-3.29109200,-46.12143000,4.18307100,-0.03254183
8.29433949,-4.78284900,-43.86073000,4.25996500,-0.03211122
8.37433949,-6.35150100,-41.50775000,4.29072300,-0.03177289
8.45433949,-7.95091000,-38.92409000,4.27534400,-0.03152682
8.53433949,-9.51956200,-36.04823000,4.19845000,-0.03134227
8.61433949,-11.02670000,-32.95706000,4.02928100,-0.03131152
8.69433950,-12.48770000,-29.78900000,3.78321800,-0.03149606
8.77433950,-13.85642000,-26.68245000,3.44488200,-0.03198819
8.85433950,-15.14825000,-23.76046000,3.01427100,-0.03272638
8.93433950,-16.36319000,-21.09990000,2.50676700,-0.03374139
9.01433950,-17.51661000,-18.67003000,1.98388300,-0.03497170
9.09433950,-18.60851000,-16.34781000,1.43024100,-0.03617126
9.17433950,-19.65428000,-13.94870000,0.92273620,-0.03727854
9.25433950,-20.71543000,-11.34966000,0.49212600,-0.03817052
9.33433950,-21.80733000,-8.55068800,0.18454720,-0.03878568
9.41433951,-22.94537000,-5.52103800,0.01537894,-0.03915477
9.49433951,-24.14493000,-2.29146100,0.01537894,-0.03924705
9.57433951,-25.37524000,1.06114600,0.18454720,-0.03909326
9.65433951,-26.65170000,4.45989200,0.49212600,-0.03875492
9.73433951,-27.88201000,7.81250000,0.92273620,-0.03826280
9.81433951,-29.05081000,11.05746000,1.43024100,-0.03761688
9.89433951,-30.06582000,14.11786000,1.98388300,-0.03678642
9.97433951,-30.88090000,16.94759000,2.50676700,-0.03580217
10.05433951,-31.41917000,19.43897000,3.01427100,-0.03463336
10.13433951,-31.64985000,21.48437000,3.44488200,-0.03337229
10.21433952,-31.55758000,22.99151000,3.78321800,-0.03204970
10.29433952,-31.12697000,23.92962000,4.02928100,-0.03069636
10.37433952,-30.40416000,24.25258000,4.19845000,-0.02937377
10.45433952,-29.38915000,24.00652000,4.27534400,-0.02805118
10.53433952,-28.14345000,23.23757000,4.29072300,-0.02675935
10.61433952,-26.69783000,22.05339000,4.25996500,-0.02546752
10.69433952,-25.05229000,20.54626000,4.18307100,-0.02411417
10.77433952,-23.23757000,18.83920000,4.10617600,-0.02260704
10.85433952,-21.25369000,16.94759000,4.02928100,-0.02088460
10.93433953,-19.11602000,14.93295000,3.96776600,-0.01894685
11.01433953,-16.85531000,12.84141000,3.93700800,-0.01682456
11.09433953,-14.50234000,10.68836000,3.92162900,-0.01451772
11.17433953,-12.11860000,8.48917200,3.92162900,-0.01211860
11.25433953,-9.68872900,6.24384800,3.93700800,-0.00962722
11.33433953,-7.27423700,3.98314500,3.93700800,-0.00713583
11.41433953,-4.87512300,1.70706200,3.95238700,-0.00464444
11.49433953,-2.49138800,-0.61515740,3.95238700,-0.00218381
11.57433953,-0.10765260,-2.98351400,3.95238700,0.00024606
11.65433953,2.27608300,-5.42876500,3.93700800,0.00261442
