Time,Channel A,Channel B,Channel C,Channel D
(ns),(mV),(mV),(mV),(V)

-15.24637683,3.87549200,-0.13841040,4.04466000,0.00781250
-15.16637682,3.52177600,-0.49212600,4.24458600,0.00778174
-15.08637682,2.84510300,-0.93811510,4.36761800,0.00768947
-15.00637682,1.93774600,-1.43024100,4.45989200,0.00756644
-14.92637682,0.84584150,-1.96850400,4.49065000,0.00744341
-14.84637682,-0.30757870,-2.52214600,4.49065000,0.00728962
-14.76637682,-1.43024100,-3.02965000,4.45989200,0.00719734
-14.68637682,-2.41449300,-3.44488200,4.36761800,0.00719734
-14.60637682,-3.21419800,-3.75246000,4.24458600,0.00732037
-14.52637682,-3.75246000,-3.90625000,4.04466000,0.00762795
-14.44637681,-4.02928100,-3.89087100,3.78321800,0.00812008
-14.36637681,-4.02928100,-3.70632400,3.42950300,0.00882751
-14.28637681,-3.78321800,-3.35260800,2.99889300,0.00971949
-14.20637681,-3.36798700,-2.86048200,2.50676700,0.01076526
-14.12637681,-2.82972400,-2.27608300,1.98388300,0.01184178
-14.04637681,-2.21456700,-1.67630400,1.43024100,0.01294907
-13.96637681,-1.59940900,-1.09190400,0.92273620,0.01393332
-13.88637681,-1.01501000,-0.58439960,0.49212600,0.01476378
-13.80637681,-0.53826270,-0.21530510,0.18454720,0.01534818
-13.72637680,-0.15378940,-0.03075787,0.01537894,0.01565576
-13.64637680,0.12303150,-0.03075787,0.01537894,0.01565576
-13.56637680,0.27682080,-0.21530510,0.18454720,0.01534818
-13.48637680,0.35371550,-0.58439960,0.49212600,0.01476378
-13.40637680,0.35371550,-1.09190400,0.92273620,0.01393332
-13.32637680,0.30757870,-1.67630400,1.43024100,0.01294907
-13.24637680,0.23068400,-2.27608300,1.98388300,0.01184178
-13.16637680,0.15378940,-2.86048200,2.50676700,0.01076526
-13.08637680,0.09227362,-3.35260800,3.01427100,0.00971949
-13.00637680,0.03075787,-3.70632400,3.44488200,0.00882751
-12.92637679,0.00000000,-3.89087100,3.78321800,0.00812008
-12.84637679,0.00000000,-3.90625000,4.02928100,0.00762795
-12.76637679,0.03075787,-3.75246000,4.19845000,0.00732037
-12.68637679,0.09227362,-3.44488200,4.27534400,0.00719734
-12.60637679,0.15378940,-3.02965000,4.29072300,0.00719734
-12.52637679,0.23068400,-2.52214600,4.25996500,0.00728962
-12.44637679,0.30757870,-1.96850400,4.18307100,0.00744341
-12.36637679,0.35371550,-1.43024100,4.10617600,0.00756644
-12.28637679,0.33833660,-0.93811510,4.02928100,0.00768947
-12.20637678,0.27682080,-0.50750490,3.96776600,0.00778174
-12.12637678,0.10765260,-0.15378940,3.93700800,0.00781250
-12.04637678,-0.13841040,0.13841040,3.92162900,0.00784326
-11.96637678,-0.49212600,0.35371550,3.92162900,0.00787402
-11.88637678,-0.92273620,0.53826270,3.93700800,0.00787402
-11.80637678,-1.43024100,0.67667320,3.93700800,0.00790477
-11.72637678,-1.96850400,0.78432570,3.95238700,0.00790477
-11.64637678,-2.52214600,0.84584150,3.95238700,0.00790477
-11.56637678,-3.01427100,0.84584150,3.95238700,0.00787402
-11.48637677,-3.44488200,0.76894680,3.93700800,0.00787402
-11.40637677,-3.73708200,0.56902060,3.92162900,0.00784326
-11.32637677,-3.90625000,0.23068400,3.92162900,0.00784326
-11.24637677,-3.90625000,-0.27682080,3.92162900,0.00787402
-11.16637677,-3.73708200,-0.93811510,3.92162900,0.00793553
-11.08637677,-3.44488200,-1.76857800,3.93700800,0.00805856
-11.00637677,-3.01427100,-2.70669300,3.95238700,0.00821235
-10.92637677,-2.52214600,-3.70632400,3.95238700,0.00836614
-10.84637677,-1.96850400,-4.73671200,3.95238700,0.00851993
-10.76637677,-1.43024100,-5.69020700,3.95238700,0.00858145
-10.68637676,-0.92273620,-6.55142700,3.93700800,0.00855069
-10.60637676,-0.49212600,-7.22810000,3.92162900,0.00839690
-10.52637676,-0.13841040,-7.68946800,3.92162900,0.00805856
-10.44637676,0.10765260,-7.93553100,3.92162900,0.00756644
-10.36637676,0.27682080,-7.93553100,3.92162900,0.00688976
-10.28637676,0.33833660,-7.72022600,3.93700800,0.00602854
-10.20637676,0.35371550,-7.30499500,3.95238700,0.00501353
-10.12637676,0.30757870,-6.78211100,3.95238700,0.00396777
-10.04637676,0.23068400,-6.16695300,3.95238700,0.00286048
-9.96637675,0.16916830,-5.53641700,3.95238700,0.00184547
-9.88637675,0.09227362,-4.95201700,3.93700800,0.00098425
-9.80637675,0.04613681,-4.45989200,3.93700800,0.00036909
-9.72637675,0.01537894,-4.07541800,3.92162900,0.00003076
-9.64637675,0.00000000,-3.79859700,3.90625000,0.00003076
-9.56637675,-0.01537894,-3.64480800,3.89087100,0.00036909
-9.48637675,0.00000000,-3.58329200,3.84473400,0.00098425
-9.40637675,0.00000000,-3.59867100,3.78321800,0.00184547
-9.32637675,0.00000000,-3.64480800,3.72170300,0.00286048
-9.24637674,0.00000000,-3.72170300,3.64480800,0.00396777
-9.16637674,0.00000000,-3.78321800,3.59867100,0.00501353
-9.08637674,0.00000000,-3.84473400,3.59867100,0.00602854
-9.00637674,0.00000000,-3.89087100,3.66018700,0.00688976
-8.92637674,0.00000000,-3.90625000,3.81397600,0.00756644
-8.84637674,0.00000000,-3.92162900,4.06003900,0.00805856
-8.76637674,0.00000000,-3.93700800,4.41375400,0.00839690
-8.68637674,0.00000000,-3.93700800,4.85974400,0.00855069
-8.60637674,0.00000000,-3.95238700,5.38262700,0.00858145
-8.52637674,0.00000000,-3.95238700,5.92089000,0.00851993
-8.44637673,0.00000000,-3.95238700,6.47453200,0.00836614
-8.36637673,0.00000000,-3.95238700,6.96665800,0.00821235
-8.28637673,0.00000000,-3.93700800,7.38188900,0.00805856
-8.20637673,0.00000000,-3.92162900,7.67408900,0.00793553
-8.12637673,0.00000000,-3.92162900,7.82787800,0.00784326
-8.04637673,0.00000000,-3.92162900,7.82787800,0.00784326
-7.96637673,0.00000000,-3.92162900,7.67408900,0.00793553
-7.88637673,0.00000000,-3.93700800,7.38188900,0.00805856
-7.80637673,0.00000000,-3.95238700,6.96665800,0.00821235
-7.72637672,0.00000000,-3.95238700,6.47453200,0.00836614
-7.64637672,0.00000000,-3.95238700,5.92089000,0.00851993
-7.56637672,0.00000000,-3.93700800,5.38262700,0.00858145
-7.48637672,0.00000000,-3.93700800,4.85974400,0.00855069
-7.40637672,0.00000000,-3.92162900,4.41375400,0.00839690
-7.32637672,0.00000000,-3.92162900,4.06003900,0.00805856
-7.24637672,0.00000000,-3.93700800,3.81397600,0.00756644
-7.16637672,0.00000000,-3.96776600,3.66018700,0.00688976
-7.08637672,0.00000000,-4.02928100,3.59867100,0.00602854
-7.00637672,0.00000000,-4.10617600,3.59867100,0.00501353
-6.92637671,0.00000000,-4.18307100,3.64480800,0.00396777
-6.84637671,0.00000000,-4.25996500,3.72170300,0.00286048
-6.76637671,0.00000000,-4.29072300,3.78321800,0.00184547
-6.68637671,0.00000000,-4.27534400,3.82935500,0.00098425
-6.60637671,0.00000000,-4.19845000,3.87549200,0.00036909
-6.52637671,0.00000000,-4.02928100,3.90625000,0.00003076
-6.44637671,0.00000000,-3.78321800,3.93700800,0.00003076
-6.36637671,0.00000000,-3.44488200,3.98314500,0.00036909
-6.28637671,0.00000000,-3.01427100,4.04466000,0.00098425
-6.20637670,0.00000000,-2.50676700,4.10617600,0.00184547
-6.12637670,0.00000000,-1.98388300,4.18307100,0.00286048
-6.04637670,0.00000000,-1.43024100,4.25996500,0.00396777
-5.96637670,0.00000000,-0.92273620,4.29072300,0.00501353
-5.88637670,0.00000000,-0.49212600,4.27534400,0.00602854
-5.80637670,-0.01537894,-0.18454720,4.19845000,0.00688976
-5.72637670,0.00000000,-0.01537894,4.02928100,0.00756644
-5.64637670,0.01537894,-0.01537894,3.78321800,0.00805856
-5.56637670,0.04613681,-0.18454720,3.44488200,0.00839690
-5.48637669,0.09227362,-0.49212600,3.01427100,0.00855069
-5.40637669,0.16916830,-0.92273620,2.50676700,0.00858145
-5.32637669,0.23068400,-1.43024100,1.98388300,0.00851993
-5.24637669,0.30757870,-1.98388300,1.43024100,0.00836614
-5.16637669,0.35371550,-2.50676700,0.92273620,0.00821235
-5.08637669,0.33833660,-3.01427100,0.49212600,0.00805856
-5.00637669,0.27682080,-3.44488200,0.18454720,0.00793553
-4.92637669,0.10765260,-3.78321800,0.01537894,0.00784326
-4.84637669,-0.13841040,-4.02928100,0.01537894,0.00784326
-4.76637669,-0.49212600,-4.19845000,0.18454720,0.00793553
-4.68637668,-0.92273620,-4.27534400,0.49212600,0.00805856
-4.60637668,-1.43024100,-4.29072300,0.92273620,0.00821235
-4.52637668,-1.96850400,-4.25996500,1.43024100,0.00836614
-4.44637668,-2.52214600,-4.18307100,1.98388300,0.00851993
-4.36637668,-3.02965000,-4.10617600,2.50676700,0.00858145
-4.28637668,-3.44488200,-4.02928100,2.99889300,0.00855069
-4.20637668,-3.75246000,-3.96776600,3.42950300,0.00839690
-4.12637668,-3.90625000,-3.92162900,3.78321800,0.00805856
-4.04637668,-3.89087100,-3.92162900,4.04466000,0.00756644
-3.96637667,-3.70632400,-3.96776600,4.24458600,0.00688976
-3.88637667,-3.35260800,-4.02928100,4.36761800,0.00602854
-3.80637667,-2.86048200,-4.10617600,4.45989200,0.00501353
-3.72637667,-2.27608300,-4.18307100,4.49065000,0.00396777
-3.64637667,-1.67630400,-4.25996500,4.49065000,0.00286048
-3.56637667,-1.09190400,-4.29072300,4.45989200,0.00184547
-3.48637667,-0.58439960,-4.27534400,4.36761800,0.00098425
-3.40637667,-0.21530510,-4.18307100,4.24458600,0.00033834
-3.32637667,-0.03075787,-4.02928100,4.04466000,0.00003076
-3.24637666,-0.03075787,-3.79859700,3.78321800,0.00006152
-3.16637666,-0.21530510,-3.49101900,3.42950300,0.00046137
-3.08637666,-0.58439960,-3.10654500,2.99889300,0.00116880
-3.00637666,-1.09190400,-2.67593500,2.50676700,0.00218381
-2.92637666,-1.67630400,-2.21456700,1.98388300,0.00335261
-2.84637666,-2.27608300,-1.73782000,1.43024100,0.00455217
-2.76637666,-2.86048200,-1.26107300,0.92273620,0.00572097
-2.68637666,-3.35260800,-0.83046260,0.49212600,0.00670522
-2.60637666,-3.70632400,-0.44598910,0.18454720,0.00741265
-2.52637666,-3.89087100,-0.12303150,0.01537894,0.00778174
-2.44637665,-3.90625000,0.10765260,0.01537894,0.00778174
-2.36637665,-3.75246000,0.26144190,0.18454720,0.00741265
-2.28637665,-3.44488200,0.33833660,0.49212600,0.00670522
-2.20637665,-3.02965000,0.33833660,0.92273620,0.00572097
-2.12637665,-2.52214600,0.30757870,1.43024100,0.00455217
-2.04637665,-1.96850400,0.23068400,1.98388300,0.00335261
-1.96637665,-1.43024100,0.16916830,2.52214600,0.00218381
-1.88637665,-0.92273620,0.09227362,3.04502900,0.00116880
-1.80637665,-0.49212600,0.04613681,3.49101900,0.00046137
-1.72637664,-0.13841040,0.01537894,3.81397600,0.00006152
-1.64637664,0.10765260,0.00000000,3.98314500,0.00003076
-1.56637664,0.27682080,-0.01537894,3.98314500,0.00033834
-1.48637664,0.33833660,0.00000000,3.79859700,0.00098425
-1.40637664,0.35371550,0.00000000,3.47564000,0.00184547
-1.32637664,0.30757870,0.00000000,3.07578700,0.00286048
-1.24637664,0.23068400,0.00000000,2.66055600,0.00396777
-1.16637664,0.16916830,0.00000000,2.52214600,0.00501353
-1.08637664,0.09227362,0.00000000,2.79896600,0.00602854
-1.00637663,0.04613681,-0.01537894,3.33722900,0.00688976
-0.92637663,0.01537894,0.00000000,3.81397600,0.00756644
-0.84637663,0.00000000,0.01537894,3.87549200,0.00805856
-0.76637663,-0.01537894,0.04613681,3.16806100,0.00839690
-0.68637663,0.00000000,0.09227362,1.52251500,0.00855069
-0.60637663,0.00000000,0.16916830,-0.92273620,0.00858145
-0.52637663,0.00000000,0.23068400,-3.69094500,0.00851993
-0.44637663,0.00000000,0.30757870,-5.96702700,0.00836614
-0.36637663,-0.01537894,0.35371550,-6.52066900,0.00821235
-0.28637663,-0.04613681,0.33833660,-3.95238700,0.00805856
-0.20637662,-0.06151574,0.27682080,2.95275600,0.00793553
-0.12637662,-0.04613681,0.10765260,15.20977000,0.00787402
-0.04637662,0.07689468,-0.13841040,33.37229000,0.00784326
0.03362338,0.30757870,-0.49212600,57.44033000,0.00784326
0.11362338,0.66129420,-0.92273620,86.76796000,0.00787402
0.19362338,1.13804100,-1.43024100,120.07870000,0.00787402
0.27362338,1.66092500,-1.96850400,155.57330000,0.00790477
0.35362338,2.12229300,-2.52214600,191.06790000,0.00790477
0.43362338,2.33759800,-3.02965000,224.27100000,0.00790477
0.51362339,2.09153500,-3.44488200,252.96810000,0.00787402
0.59362339,1.43024100,-3.75246000,275.31370000,0.00784326
0.67362339,0.50750490,-3.90625000,289.96980000,0.00784326
0.75362339,-0.49212600,-3.89087100,296.27520000,0.00784326
0.83362339,-1.33796700,-3.70632400,294.26060000,0.00784326
0.91362339,-1.92236700,-3.35260800,284.64870000,0.00787402
0.99362339,-2.22994600,-2.86048200,268.70080000,0.00790477
1.07362339,-2.46063000,-2.27608300,248.04690000,0.00790477
1.15362339,-3.02965000,-1.67630400,224.45560000,0.00790477
1.23362339,-4.73671200,-1.10728300,199.64940000,0.00784326
1.31362340,-8.36614100,-0.66129420,175.15070000,0.00775098
1.39362340,-14.27165000,-0.32295760,152.08230000,0.00765871
1.47362340,-22.51476000,-0.09227362,131.15160000,0.00772023
1.55362340,-32.89555000,0.09227362,112.65070000,0.00805856
1.63362340,-44.99877000,0.26144190,96.48744000,0.00870448
1.71362340,-58.34768000,0.46136810,82.29269000,0.00978100
1.79362340,-72.46555000,0.70743110,69.62044000,0.01113435
1.87362340,-87.07553000,0.93811510,57.94783000,0.01264149
1.95362340,-102.16230000,1.06114600,46.89037000,0.01399483
2.03362341,-118.20250000,0.83046260,36.24815000,0.01460999
2.11362341,-135.84210000,0.01537894,26.03654000,0.01405635
2.19362341,-155.35800000,-1.32258800,16.44008000,0.01230315
2.27362341,-176.82700000,-3.01427100,7.79712100,0.00950418
2.35362341,-200.14150000,-4.82898600,0.41523130,0.00605930
2.43362341,-224.90160000,-6.48991100,-5.41338600,0.00242987
2.51362341,-250.59980000,-7.82787800,-9.55032000,-0.00113804
2.59362341,-276.54400000,-8.85826700,-12.02633000,-0.00449065
2.67362341,-302.10380000,-9.79638200,-13.07210000,-0.00790477
2.75362342,-326.71010000,-11.11897000,-13.22589000,-0.01205709
2.83362342,-350.11690000,-13.74877000,-13.01058000,-0.01820866
2.91362342,-372.21640000,-18.63927000,-12.67224000,-0.02777436
2.99362342,-392.68580000,-26.26722000,-12.34929000,-0.04152313
3.07362342,-411.23280000,-36.80180000,-11.98019000,-0.05979331
3.15362342,-427.56520000,-50.15071000,-11.50344000,-0.08246186
3.23362342,-441.45240000,-65.86799000,-10.76525000,-0.10897510
3.31362342,-452.69440000,-83.41534000,-9.64259300,-0.13847190
3.39362342,-461.22970000,-102.16230000,-8.07394100,-0.16996800
3.47362342,-467.05830000,-121.57050000,-6.12081600,-0.20250980
3.55362343,-470.33400000,-141.34780000,-3.95238700,-0.23535930
3.63362343,-471.44130000,-161.63260000,-1.78395700,-0.26836250
3.71362343,-470.78000000,-182.73250000,0.24606300,-0.30148870
3.79362343,-468.61160000,-204.70900000,1.98388300,-0.33470720
3.87362343,-465.08980000,-227.56210000,3.38336600,-0.36789490
3.95362343,-460.27620000,-251.12260000,4.36761800,-0.40083660
4.03362343,-454.10920000,-275.11380000,4.96739600,-0.43325540
4.11362343,-446.49660000,-299.10490000,5.21345900,-0.46481300
4.19362343,-437.34620000,-322.60390000,5.16732200,-0.49489420
4.27362344,-426.56560000,-345.08800000,4.93663800,-0.52288380
4.35362344,-414.09320000,-366.06480000,4.59830200,-0.54807450
4.43362344,-400.06760000,-385.28850000,4.24458600,-0.56991270
4.51362344,-384.88860000,-402.55900000,3.96776600,-0.58787520
4.59362344,-369.06370000,-417.58430000,3.82935500,-0.60131650
4.67362344,-353.08500000,-430.11810000,3.84473400,-0.60971330
4.75362344,-337.36770000,-439.94520000,4.02928100,-0.61272760
4.83362344,-322.23490000,-446.94260000,4.38299700,-0.61023620
4.91362344,-307.74790000,-451.01810000,4.82898600,-0.60236220
4.99362345,-293.83000000,-452.21760000,5.36724900,-0.58953620
5.07362345,-280.20420000,-450.64900000,5.92089000,-0.57240400
5.15362345,-266.28630000,-446.51200000,6.47453200,-0.55170400
5.23362345,-251.59940000,-440.08360000,6.96665800,-0.52842030
5.31362345,-236.15890000,-431.71750000,7.38188900,-0.50350640
5.39362345,-220.18020000,-421.70580000,7.67408900,-0.47782360
5.47362345,-204.07850000,-410.24850000,7.82787800,-0.45207920
5.55362345,-188.28430000,-397.45320000,7.81250000,-0.42667320
5.63362345,-173.21300000,-383.39690000,7.62795300,-0.40182090
5.71362345,-159.12590000,-368.11020000,7.28961600,-0.37749140
5.79362346,-146.08450000,-351.63940000,6.79749000,-0.35350020
5.87362346,-133.98130000,-334.01510000,6.22846900,-0.32957060
5.95362346,-122.32410000,-315.26820000,5.62869100,-0.30527190
6.03362346,-110.60530000,-295.61390000,5.02891200,-0.28048100
6.11362346,-98.84042000,-275.55980000,4.52140800,-0.25547490
6.19362346,-87.18319000,-255.67480000,4.15231300,-0.23086860
6.27362346,-75.95657000,-236.58960000,3.95238700,-0.20730810
6.35362346,-65.48351000,-218.78070000,3.95238700,-0.18543920
6.43362346,-56.11774000,-202.55600000,4.15231300,-0.16581570
6.51362347,-48.01304000,-188.02290000,4.52140800,-0.14865280
6.59362347,-41.20017000,-175.02770000,5.02891200,-0.13385830
6.67362347,-35.57148000,-163.23200000,5.62869100,-0.12106300
6.75362347,-30.65022000,-151.97460000,6.22846900,-0.10946730
6.83362347,-26.02116000,-140.68650000,6.79749000,-0.09827141
6.91362347,-21.57665000,-129.30610000,7.27423700,-0.08732160
6.99362347,-17.36282000,-118.00260000,7.61257400,-0.07683317
7.07362347,-13.50271000,-107.12970000,7.81250000,-0.06714444
7.15362347,-10.19623000,-97.10260000,7.84325700,-0.05874754
7.23362348,-7.61257400,-88.25971000,7.72022600,-0.05201156
7.31362348,-5.87475300,-80.84706000,7.47416300,-0.04718258
7.39362348,-4.98277500,-74.86466000,7.13582600,-0.04426058
7.47362348,-4.84436500,-70.11256000,6.70521600,-0.04293799
7.55362348,-5.18270100,-66.00639000,6.22846900,-0.04250738
7.63362348,-5.69020700,-61.96173000,5.72096400,-0.04223056
7.71362348,-6.27460600,-57.79404000,5.21345900,-0.04179995
7.79362348,-6.87438400,-53.48794000,4.69057600,-0.04100025
7.87362348,-7.50492100,-49.16646000,4.18307100,-0.03989296
7.95362348,-8.21235200,-45.06028000,3.66018700,-0.03853961
8.03362349,-9.02743600,-41.38472000,3.12192400,-0.03715551
8.11362349,-10.02707000,-38.33969000,2.56828200,-0.03589444
8.19362349,-11.22662000,-35.95595000,1.99926200,-0.03491019
8.27362349,-12.57997000,-34.15662000,1.43024100,-0.03423351
8.35362349,-14.01021000,-32.64948000,0.89197830,-0.03367987
8.43362349,-15.42507000,-31.06545000,0.41523130,-0.03312623
8.51362349,-16.77842000,-29.25074000,0.06151574,-0.03257259
8.59362349,-18.03949000,-27.12844000,-0.12303150,-0.03204970
8.67362349,-19.13140000,-24.77547000,-0.10765260,-0.03155758
8.75362350,-20.03875000,-22.26870000,0.16916830,-0.03121924
8.83362350,-20.74619000,-19.73118000,0.67667320,-0.03103469
8.91362350,-21.23831000,-17.28592000,1.43024100,-0.03103469
8.99362350,-21.54589000,-14.99446000,2.35297700,-0.03121924
9.07362350,-21.69968000,-12.88755000,3.41412400,-0.03149606
9.15362350,-21.77658000,-10.82677000,4.49065000,-0.03174213
9.23362350,-21.85347000,-8.70447700,5.53641700,-0.03192667
9.31362350,-22.02264000,-6.42839500,6.45915300,-0.03195743
9.39362350,-22.40711000,-3.98314500,7.18196300,-0.03183440
9.47362351,-23.08378000,-1.36872500,7.68946800,-0.03155758
9.55362351,-24.06804000,1.38410400,7.93553100,-0.03118848
9.63362351,-25.39062000,4.21382900,7.93553100,-0.03072712
9.71362351,-26.99003000,7.04355200,7.72022600,-0.03023499
9.79362351,-28.78937000,9.82714000,7.32037400,-0.02968135
9.87362351,-30.65022000,12.48770000,6.78211100,-0.02909695
9.95362351,-32.41880000,15.00984000,6.16695300,-0.02842028
10.03362351,-33.92593000,17.36282000,5.53641700,-0.02758981
10.11362351,-35.00246000,19.48511000,4.95201700,-0.02657480
10.19362351,-35.57148000,21.34596000,4.45989200,-0.02543676
10.27362352,-35.54072000,22.88386000,4.07541800,-0.02417569
10.35362352,-34.91019000,24.09879000,3.79859700,-0.02288386
10.43362352,-33.71063000,24.97539000,3.64480800,-0.02153051
10.51362352,-32.01895000,25.52903000,3.58329200,-0.02020792
10.59362352,-29.89665000,25.75972000,3.59867100,-0.01888533
10.67362352,-27.48216000,25.69820000,3.64480800,-0.01756275
10.75362352,-24.82160000,25.35987000,3.72170300,-0.01620940
10.83362352,-21.99188000,24.71395000,3.78321800,-0.01470226
10.91362352,-19.06988000,23.72970000,3.82935500,-0.01301058
10.99362353,-16.11712000,22.37635000,3.87549200,-0.01110359
11.07362353,-13.19513000,20.63853000,3.90625000,-0.00898130
11.15362353,-10.36540000,18.50086000,3.93700800,-0.00664370
11.23362353,-7.65871000,15.97871000,3.98314500,-0.00415231
11.31362353,-5.07504900,13.13361000,4.04466000,-0.00156865
11.39362353,-2.64517700,10.02707000,4.10617600,0.00110728
11.47362353,-0.30757870,6.73597400,4.18307100,0.00375246
11.55362353,1.93774600,3.33722900,4.25996500,0.00633612
11.63362353,4.16769200,-0.12303150,4.29072300,0.00882751
11.71362353,6.38225800,-3.58329200,4.27534400,0.01116511
11.79362354,8.58144600,-6.96665800,4.19845000,0.01322589
