Time,Channel A,Channel B,Channel C,Channel D
(ns),(mV),(mV),(mV),(V)

-15.34883783,-0.03075787,-4.02928100,7.81250000,0.00027682
-15.26883782,-0.21530510,-4.18307100,7.65871000,0.00098425
-15.18883782,-0.58439960,-4.27534400,7.36651000,0.00187623
-15.10883782,-1.09190400,-4.29072300,6.96665800,0.00286048
-15.02883782,-1.67630400,-4.25996500,6.47453200,0.00393701
-14.94883782,-2.27608300,-4.18307100,5.92089000,0.00504429
-14.86883782,-2.86048200,-4.10617600,5.36724900,0.00605930
-14.78883782,-3.35260800,-4.02928100,4.85974400,0.00688976
-14.70883782,-3.70632400,-3.96776600,4.39837600,0.00750492
-14.62883782,-3.89087100,-3.93700800,4.06003900,0.00781250
-14.54883781,-3.90625000,-3.92162900,3.81397600,0.00778174
-14.46883781,-3.75246000,-3.92162900,3.70632400,0.00741265
-14.38883781,-3.44488200,-3.93700800,3.69094500,0.00670522
-14.30883781,-3.02965000,-3.93700800,3.76783900,0.00572097
-14.22883781,-2.52214600,-3.95238700,3.89087100,0.00455217
-14.14883781,-1.96850400,-3.95238700,4.01390200,0.00335261
-14.06883781,-1.43024100,-3.95238700,4.13693400,0.00218381
-13.98883781,-0.93811510,-3.93700800,4.18307100,0.00116880
-13.90883781,-0.49212600,-3.92162900,4.15231300,0.00043061
-13.82883780,-0.13841040,-3.92162900,4.02928100,0.00006152
-13.74883780,0.12303150,-3.92162900,3.78321800,0.00006152
-13.66883780,0.30757870,-3.92162900,3.44488200,0.00043061
-13.58883780,0.43061020,-3.93700800,3.01427100,0.00116880
-13.50883780,0.50750490,-3.95238700,2.52214600,0.00218381
-13.42883780,0.53826270,-3.95238700,1.98388300,0.00335261
-13.34883780,0.53826270,-3.95238700,1.43024100,0.00455217
-13.26883780,0.50750490,-3.93700800,0.92273620,0.00572097
-13.18883780,0.43061020,-3.93700800,0.49212600,0.00670522
-13.10883780,0.30757870,-3.92162900,0.18454720,0.00741265
-13.02883779,0.12303150,-3.92162900,0.01537894,0.00778174
-12.94883779,-0.13841040,-3.93700800,0.01537894,0.00781250
-12.86883779,-0.49212600,-3.96776600,0.18454720,0.00750492
-12.78883779,-0.93811510,-4.02928100,0.49212600,0.00688976
-12.70883779,-1.43024100,-4.10617600,0.92273620,0.00605930
-12.62883779,-1.96850400,-4.18307100,1.43024100,0.00504429
-12.54883779,-2.52214600,-4.25996500,1.98388300,0.00393701
-12.46883779,-3.01427100,-4.29072300,2.50676700,0.00286048
-12.38883779,-3.44488200,-4.27534400,3.01427100,0.00187623
-12.30883778,-3.73708200,-4.19845000,3.44488200,0.00098425
-12.22883778,-3.90625000,-4.02928100,3.78321800,0.00027682
-12.14883778,-3.90625000,-3.78321800,4.02928100,-0.00024606
-12.06883778,-3.73708200,-3.44488200,4.19845000,-0.00061516
-11.98883778,-3.44488200,-3.01427100,4.27534400,-0.00086122
-11.90883778,-3.01427100,-2.50676700,4.29072300,-0.00101501
-11.82883778,-2.52214600,-1.98388300,4.25996500,-0.00107653
-11.74883778,-1.96850400,-1.43024100,4.18307100,-0.00107653
-11.66883778,-1.43024100,-0.92273620,4.10617600,-0.00101501
-11.58883777,-0.92273620,-0.49212600,4.04466000,-0.00086122
-11.50883777,-0.49212600,-0.18454720,3.98314500,-0.00061516
-11.42883777,-0.13841040,-0.01537894,3.93700800,-0.00024606
-11.34883777,0.10765260,-0.01537894,3.90625000,0.00027682
-11.26883777,0.27682080,-0.18454720,3.87549200,0.00092274
-11.18883777,0.33833660,-0.49212600,3.82935500,0.00166093
-11.10883777,0.35371550,-0.92273620,3.78321800,0.00255290
-11.02883777,0.30757870,-1.43024100,3.72170300,0.00347564
-10.94883777,0.23068400,-1.98388300,3.64480800,0.00442913
-10.86883777,0.16916830,-2.52214600,3.59867100,0.00535187
-10.78883776,0.09227362,-3.01427100,3.58329200,0.00621309
-10.70883776,0.04613681,-3.44488200,3.64480800,0.00698204
-10.62883776,0.01537894,-3.78321800,3.79859700,0.00759720
-10.54883776,0.00000000,-4.02928100,4.07541800,0.00805856
-10.46883776,-0.01537894,-4.15231300,4.45989200,0.00836614
-10.38883776,0.00000000,-4.18307100,4.95201700,0.00855069
-10.30883776,0.00000000,-4.13693400,5.53641700,0.00858145
-10.22883776,0.00000000,-4.01390200,6.16695300,0.00851993
-10.14883776,0.00000000,-3.89087100,6.78211100,0.00836614
-10.06883775,0.00000000,-3.76783900,7.32037400,0.00821235
-9.98883775,0.00000000,-3.69094500,7.72022600,0.00805856
-9.90883775,0.00000000,-3.70632400,7.93553100,0.00793553
-9.82883775,0.00000000,-3.82935500,7.93553100,0.00787402
-9.74883775,0.00000000,-4.04466000,7.68946800,0.00784326
-9.66883775,0.00000000,-4.36761800,7.18196300,0.00784326
-9.58883775,0.00000000,-4.76747000,6.45915300,0.00787402
-9.50883775,0.00000000,-5.21345900,5.53641700,0.00787402
-9.42883775,0.00000000,-5.69020700,4.49065000,0.00790477
-9.34883774,0.00000000,-6.16695300,3.41412400,0.00790477
-9.26883774,0.00000000,-6.62832200,2.35297700,0.00790477
-9.18883774,0.00000000,-7.04355200,1.41486200,0.00787402
-9.10883774,-0.01537894,-7.41264700,0.67667320,0.00784326
-9.02883774,0.00000000,-7.72022600,0.15378940,0.00784326
-8.94883774,0.01537894,-7.95091000,-0.09227362,0.00784326
-8.86883774,0.04613681,-8.12007800,-0.09227362,0.00784326
-8.78883774,0.09227362,-8.21235200,0.15378940,0.00787402
-8.70883774,0.16916830,-8.22773100,0.58439960,0.00790477
-8.62883774,0.23068400,-8.21235200,1.12266200,0.00790477
-8.54883773,0.30757870,-8.13545700,1.73782000,0.00790477
-8.46883773,0.35371550,-8.05856200,2.35297700,0.00787402
-8.38883773,0.33833660,-7.96628900,2.92199800,0.00787402
-8.30883773,0.27682080,-7.88939400,3.39874500,0.00784326
-8.22883773,0.10765260,-7.84325700,3.76783900,0.00784326
-8.14883773,-0.13841040,-7.84325700,4.04466000,0.00787402
-8.06883773,-0.49212600,-7.88939400,4.21382900,0.00793553
-7.98883773,-0.92273620,-7.96628900,4.29072300,0.00805856
-7.90883773,-1.43024100,-8.05856200,4.29072300,0.00821235
-7.82883772,-1.96850400,-8.13545700,4.25996500,0.00836614
-7.74883772,-2.52214600,-8.21235200,4.18307100,0.00851993
-7.66883772,-3.01427100,-8.22773100,4.10617600,0.00858145
-7.58883772,-3.44488200,-8.19697300,4.02928100,0.00855069
-7.50883772,-3.73708200,-8.10469900,3.96776600,0.00839690
-7.42883772,-3.90625000,-7.95091000,3.93700800,0.00805856
-7.34883772,-3.90625000,-7.72022600,3.92162900,0.00756644
-7.26883772,-3.73708200,-7.45878400,3.92162900,0.00688976
-7.18883772,-3.44488200,-7.13582600,3.93700800,0.00602854
-7.10883772,-3.01427100,-6.78211100,3.93700800,0.00501353
-7.02883771,-2.52214600,-6.39763700,3.95238700,0.00396777
-6.94883771,-1.96850400,-5.99778500,3.95238700,0.00286048
-6.86883771,-1.43024100,-5.56717500,3.95238700,0.00184547
-6.78883771,-0.92273620,-5.12118600,3.93700800,0.00098425
-6.70883771,-0.49212600,-4.65981800,3.92162900,0.00036909
-6.62883771,-0.13841040,-4.16769200,3.92162900,0.00003076
-6.54883771,0.10765260,-3.66018700,3.92162900,0.00003076
-6.46883771,0.27682080,-3.13730300,3.92162900,0.00036909
-6.38883771,0.33833660,-2.58366100,3.93700800,0.00098425
-6.30883770,0.35371550,-2.01464100,3.95238700,0.00184547
-6.22883770,0.30757870,-1.43024100,3.95238700,0.00286048
-6.14883770,0.23068400,-0.89197830,3.95238700,0.00396777
-6.06883770,0.15378940,-0.41523130,3.95238700,0.00504429
-5.98883770,0.09227362,-0.06151574,3.93700800,0.00602854
-5.90883770,0.03075787,0.12303150,3.92162900,0.00688976
-5.82883770,0.00000000,0.10765260,3.92162900,0.00756644
-5.74883770,0.00000000,-0.16916830,3.92162900,0.00805856
-5.66883770,0.03075787,-0.67667320,3.92162900,0.00830463
-5.58883769,0.09227362,-1.43024100,3.93700800,0.00836614
-5.50883769,0.15378940,-2.35297700,3.95238700,0.00827387
-5.42883769,0.23068400,-3.41412400,3.95238700,0.00802781
-5.34883769,0.30757870,-4.49065000,3.95238700,0.00778174
-5.26883769,0.35371550,-5.53641700,3.95238700,0.00750492
-5.18883769,0.33833660,-6.44377400,3.93700800,0.00735113
-5.10883769,0.27682080,-7.18196300,3.92162900,0.00738189
-5.02883769,0.10765260,-7.67408900,3.92162900,0.00762795
-4.94883769,-0.13841040,-7.95091000,3.92162900,0.00812008
-4.86883769,-0.49212600,-7.98166800,3.92162900,0.00888903
-4.78883768,-0.92273620,-7.81250000,3.93700800,0.00990404
-4.70883768,-1.43024100,-7.47416300,3.95238700,0.01107283
-4.62883768,-1.96850400,-7.01279500,3.95238700,0.01233391
-4.54883768,-2.52214600,-6.47453200,3.95238700,0.01356422
-4.46883768,-3.02965000,-5.89013200,3.95238700,0.01464075
-4.38883768,-3.44488200,-5.30573300,3.93700800,0.01544045
-4.30883768,-3.75246000,-4.72133400,3.93700800,0.01587106
-4.22883768,-3.90625000,-4.18307100,3.92162900,0.01587106
-4.14883768,-3.89087100,-3.66018700,3.90625000,0.01537894
-4.06883767,-3.70632400,-3.16806100,3.89087100,0.01436393
-3.98883767,-3.35260800,-2.66055600,3.84473400,0.01291831
-3.90883767,-2.86048200,-2.16843000,3.78321800,0.01107283
-3.82883767,-2.27608300,-1.67630400,3.72170300,0.00898130
-3.74883767,-1.67630400,-1.19955700,3.64480800,0.00682825
-3.66883767,-1.09190400,-0.76894680,3.59867100,0.00470596
-3.58883767,-0.58439960,-0.39985230,3.58329200,0.00282972
-3.50883767,-0.21530510,-0.13841040,3.64480800,0.00132259
-3.42883767,-0.03075787,-0.01537894,3.79859700,0.00030758
-3.34883766,-0.03075787,-0.03075787,4.07541800,-0.00015379
-3.26883766,-0.21530510,-0.19992620,4.45989200,-0.00009227
-3.18883766,-0.58439960,-0.50750490,4.95201700,0.00049213
-3.10883766,-1.09190400,-0.92273620,5.53641700,0.00147638
-3.02883766,-1.67630400,-1.43024100,6.16695300,0.00273745
-2.94883766,-2.27608300,-1.98388300,6.78211100,0.00409080
-2.86883766,-2.86048200,-2.50676700,7.32037400,0.00538263
-2.78883766,-3.35260800,-3.01427100,7.72022600,0.00652067
-2.70883766,-3.70632400,-3.44488200,7.93553100,0.00732037
-2.62883766,-3.89087100,-3.78321800,7.93553100,0.00778174
-2.54883765,-3.90625000,-4.02928100,7.68946800,0.00781250
-2.46883765,-3.75246000,-4.19845000,7.18196300,0.00744341
-2.38883765,-3.44488200,-4.27534400,6.45915300,0.00670522
-2.30883765,-3.02965000,-4.29072300,5.53641700,0.00572097
-2.22883765,-2.52214600,-4.25996500,4.49065000,0.00455217
-2.14883765,-1.96850400,-4.18307100,3.41412400,0.00335261
-2.06883765,-1.43024100,-4.10617600,2.35297700,0.00218381
-1.98883765,-0.92273620,-4.02928100,1.43024100,0.00116880
-1.90883765,-0.49212600,-3.96776600,0.67667320,0.00043061
-1.82883764,-0.13841040,-3.93700800,0.16916830,0.00006152
-1.74883764,0.10765260,-3.92162900,-0.10765260,0.00006152
-1.66883764,0.27682080,-3.92162900,-0.12303150,0.00043061
-1.58883764,0.33833660,-3.93700800,0.06151574,0.00116880
-1.50883764,0.35371550,-3.93700800,0.41523130,0.00218381
-1.42883764,0.30757870,-3.95238700,0.89197830,0.00335261
-1.34883764,0.23068400,-3.95238700,1.43024100,0.00455217
-1.26883764,0.15378940,-3.93700800,2.09153500,0.00572097
-1.18883764,0.09227362,-3.93700800,2.86048200,0.00670522
-1.10883763,0.03075787,-3.92162900,3.55253400,0.00741265
-1.02883763,0.00000000,-3.92162900,3.93700800,0.00778174
-0.94883763,0.00000000,-3.93700800,3.73708200,0.00778174
-0.86883763,0.03075787,-3.96776600,2.79896600,0.00741265
-0.78883763,0.09227362,-4.02928100,1.03038900,0.00670522
-0.70883763,0.15378940,-4.10617600,-1.41486200,0.00572097
-0.62883763,0.23068400,-4.18307100,-4.18307100,0.00455217
-0.54883763,0.30757870,-4.25996500,-6.67445900,0.00335261
-0.46883763,0.33833660,-4.29072300,-7.96628900,0.00218381
-0.38883763,0.32295760,-4.27534400,-7.08968900,0.00116880
-0.30883762,0.24606300,-4.18307100,-3.44488200,0.00046137
-0.22883762,0.10765260,-4.02928100,3.29109200,0.00006152
-0.14883762,-0.12303150,-3.79859700,13.16437000,0.00003076
-0.06883762,-0.39985230,-3.49101900,25.88275000,0.00033834
0.01116238,-0.73818890,-3.10654500,40.95411000,0.00098425
0.09116238,-1.10728300,-2.67593500,57.74791000,0.00184547
0.17116238,-1.50713600,-2.21456700,75.60284000,0.00286048
0.25116238,-1.90698800,-1.73782000,93.91916000,0.00396777
0.33116238,-2.38373500,-1.26107300,112.37390000,0.00501353
0.41116239,-2.92199800,-0.83046260,130.75170000,0.00602854
0.49116239,-3.46026100,-0.44598910,149.05260000,0.00688976
0.57116239,-3.82935500,-0.12303150,167.33820000,0.00756644
0.65116239,-3.92162900,0.10765260,185.71600000,0.00805856
0.73116239,-3.59867100,0.26144190,204.23230000,0.00839690
0.81116239,-2.82972400,0.33833660,222.79460000,0.00855069
0.89116239,-1.66092500,0.33833660,241.09560000,0.00858145
0.97116239,-0.30757870,0.30757870,258.53530000,0.00851993
1.05116239,0.89197830,0.23068400,274.31410000,0.00836614
1.13116239,1.35334600,0.15378940,287.43230000,0.00821235
1.21116240,0.50750490,0.07689468,296.82890000,0.00802781
1.29116240,-1.81471400,0.01537894,301.50400000,0.00790477
1.37116240,-5.53641700,-0.01537894,300.70430000,0.00784326
1.45116240,-10.39616000,0.03075787,293.98370000,0.00787402
1.53116240,-16.00947000,0.12303150,281.31150000,0.00799705
1.61116240,-22.05339000,0.27682080,263.11820000,0.00824311
1.69116240,-28.29724000,0.49212600,240.26510000,0.00855069
1.77116240,-34.77177000,0.70743110,213.96710000,0.00885827
1.85116240,-41.81533000,0.90735720,185.66990000,0.00913509
1.93116241,-50.33526000,0.96887300,156.86510000,0.00916585
2.01116241,-61.28506000,0.79970470,129.01390000,0.00882751
2.09116241,-75.17224000,0.47674700,103.30030000,0.00833538
2.17116241,-92.25824000,0.12303150,80.63176000,0.00793553
2.25116241,-112.43540000,-0.06151574,61.48499000,0.00790477
2.33116241,-135.25770000,0.04613681,45.92150000,0.00858145
2.41116241,-160.11010000,0.55364170,33.66449000,0.01005782
2.49116241,-186.19280000,1.38410400,24.17569000,0.01224163
2.57116241,-212.76760000,2.36835600,16.76304000,0.01467151
2.65116242,-239.20400000,3.09116600,10.59609000,0.01670153
2.73116242,-265.36350000,2.86048200,5.05967000,0.01697835
2.81116242,-291.21550000,1.01501000,-0.18454720,0.01427165
2.89116242,-316.54460000,-2.70669300,-5.16732200,0.00812008
2.97116242,-341.10480000,-8.32000400,-9.73486600,-0.00169168
3.05116242,-364.61920000,-15.57886000,-13.57960000,-0.01476378
3.13116242,-386.78020000,-24.11417000,-16.42470000,-0.03054257
3.21116242,-407.28040000,-33.49532000,-18.02411000,-0.04825911
3.29116242,-425.84270000,-43.39936000,-18.33169000,-0.06726747
3.37116242,-442.23670000,-53.70325000,-17.45509000,-0.08719857
3.45116243,-456.33920000,-64.56078000,-15.82493000,-0.10808320
3.53116243,-468.30400000,-76.66399000,-13.94870000,-0.13072100
3.61116243,-478.28490000,-90.79724000,-12.04171000,-0.15618850
3.69116243,-486.25120000,-107.39110000,-10.25775000,-0.18503940
3.77116243,-492.12590000,-126.66090000,-8.61220400,-0.21761200
3.85116243,-495.74000000,-148.52980000,-7.08968900,-0.25396780
3.93116243,-496.97030000,-172.65930000,-5.56717500,-0.29358390
4.01116243,-495.66310000,-198.44980000,-3.98314500,-0.33569140
4.09116243,-491.78760000,-225.16300000,-2.27608300,-0.37912150
4.17116244,-485.37460000,-252.03000000,-0.41523130,-0.42255170
4.25116244,-476.59320000,-278.32800000,1.49175700,-0.46465920
4.33116244,-465.81260000,-303.67250000,3.32185000,-0.50433680
4.41116244,-453.57100000,-327.80200000,4.98277500,-0.54072340
4.49116244,-440.37580000,-350.33220000,6.38225800,-0.57292690
4.57116244,-426.65780000,-370.95530000,7.44340500,-0.60023990
4.65116244,-412.70910000,-389.41000000,8.13545700,-0.62220100
4.73116244,-398.72970000,-405.48100000,8.44303500,-0.63862570
4.81116244,-384.70410000,-419.02990000,8.38152000,-0.64960630
4.89116245,-370.47860000,-429.97970000,7.99704600,-0.65535800
4.97116245,-355.86860000,-438.31510000,7.38188900,-0.65631150
5.05116245,-340.45890000,-444.11290000,6.64370100,-0.65292820
5.13116245,-324.00340000,-447.57320000,5.85937500,-0.64576150
5.21116245,-306.71750000,-448.91110000,5.15194400,-0.63527310
5.29116245,-289.00100000,-448.18830000,4.55216500,-0.62180120
5.37116245,-271.39210000,-445.40480000,4.09079700,-0.60543800
5.45116245,-254.42910000,-440.51430000,3.79859700,-0.58627580
5.53116245,-238.51190000,-433.47070000,3.62942900,-0.56425320
5.61116245,-223.85580000,-424.22800000,3.56791300,-0.53949310
5.69116246,-210.43000000,-412.83220000,3.59867100,-0.51205710
5.77116246,-197.95770000,-399.40630000,3.64480800,-0.48228350
5.85116246,-185.73140000,-384.15050000,3.72170300,-0.45054130
5.93116246,-173.10530000,-367.43350000,3.78321800,-0.41747660
6.01116246,-159.89480000,-349.87080000,3.84473400,-0.38407360
6.09116246,-146.23830000,-332.03120000,3.89087100,-0.35143950
6.17116246,-132.38190000,-314.48390000,3.90625000,-0.32049700
6.25116246,-118.75610000,-297.62860000,3.92162900,-0.29207680
6.33116246,-105.71480000,-281.69600000,3.93700800,-0.26657850
6.41116247,-93.55006000,-266.74770000,3.93700800,-0.24409450
6.49116247,-82.43110000,-252.61440000,3.95238700,-0.22428640
6.57116247,-72.29638000,-239.00400000,3.95238700,-0.20660060
6.65116247,-62.74606000,-225.36290000,3.95238700,-0.18992990
6.73116247,-53.39567000,-211.26040000,3.95238700,-0.17344360
6.81116247,-44.26058000,-196.77350000,3.93700800,-0.15695740
6.89116247,-35.47921000,-182.14810000,3.93700800,-0.14065580
6.97116247,-27.29761000,-167.76880000,3.92162900,-0.12503080
7.05116247,-20.02337000,-154.08160000,3.90625000,-0.11069760
7.13116248,-13.85642000,-141.47080000,3.89087100,-0.09814838
7.21116248,-8.93516300,-130.13660000,3.84473400,-0.08772146
7.29116248,-5.25959600,-120.10950000,3.78321800,-0.07947835
7.37116248,-2.69131400,-111.20510000,3.72170300,-0.07314222
7.45116248,-0.84584150,-102.86970000,3.64480800,-0.06794415
7.53116248,0.66129420,-94.61121000,3.59867100,-0.06308440
7.61116248,1.92236700,-86.32197000,3.59867100,-0.05828617
7.69116248,2.96813500,-78.15575000,3.66018700,-0.05358022
7.77116248,3.70632400,-70.34325000,3.81397600,-0.04912033
7.85116248,4.02928100,-63.22281000,4.04466000,-0.04518332
7.93116249,3.81397600,-57.05585000,4.36761800,-0.04210753
8.01116249,2.98351400,-52.01156000,4.76747000,-0.04004675
8.09116249,1.55327200,-48.10531000,5.21345900,-0.03903174
8.17116249,-0.39985230,-45.19869000,5.69020700,-0.03893947
8.25116249,-2.64517700,-42.79958000,6.16695300,-0.03933932
8.33116249,-4.93663800,-40.44660000,6.61294300,-0.03976993
8.41116249,-7.16658400,-37.97059000,7.04355200,-0.03998524
8.49116249,-9.21198300,-35.35617000,7.39726800,-0.03992372
8.57116249,-10.99594000,-32.68024000,7.70484700,-0.03952387
8.65116250,-12.47232000,-30.12733000,7.96628900,-0.03887795
8.73116250,-13.65650000,-27.88201000,8.16621500,-0.03804749
8.81116250,-14.56385000,-26.06730000,8.30462600,-0.03715551
8.89116250,-15.27128000,-24.72933000,8.39689900,-0.03626353
8.97116250,-15.84030000,-23.82197000,8.44303500,-0.03543307
9.05116250,-16.31705000,-23.06841000,8.44303500,-0.03463336
9.13116250,-16.80918000,-22.14567000,8.39689900,-0.03377214
9.21116250,-17.39358000,-20.88459000,8.30462600,-0.03291092
9.29116250,-18.13177000,-19.16216000,8.16621500,-0.03217274
9.37116251,-19.06988000,-16.96297000,7.96628900,-0.03158834
9.45116251,-20.20792000,-14.31779000,7.70484700,-0.03125000
9.53116251,-21.49975000,-11.28814000,7.35113100,-0.03118848
9.61116251,-22.91462000,-8.01242500,6.93590000,-0.03140379
9.69116251,-24.37561000,-4.59830200,6.45915300,-0.03186516
9.77116251,-25.82123000,-1.16879900,5.93626900,-0.03241880
9.85116251,-27.17458000,2.24532500,5.38262700,-0.03297244
9.93116251,-28.42027000,5.58255400,4.87512300,-0.03331078
10.01116251,-29.48142000,8.76599300,4.42913300,-0.03328002
10.09116251,-30.37340000,11.74951000,4.10617600,-0.03284941
10.17116252,-31.09621000,14.45620000,3.93700800,-0.03198819
10.25116252,-31.61909000,16.83994000,3.95238700,-0.03066560
10.33116252,-32.00356000,18.90071000,4.15231300,-0.02894316
10.41116252,-32.21887000,20.63853000,4.52140800,-0.02691314
10.49116252,-32.29576000,22.03802000,5.02891200,-0.02460630
10.57116252,-32.21887000,23.14530000,5.62869100,-0.02214567
10.65116252,-31.94205000,23.96038000,6.22846900,-0.01956201
10.73116252,-31.43455000,24.48326000,6.79749000,-0.01688607
10.81116252,-30.65022000,24.69857000,7.28961600,-0.01417938
10.89116253,-29.57369000,24.54478000,7.62795300,-0.01153420
10.97116253,-28.23573000,23.97576000,7.81250000,-0.00904282
11.05116253,-26.62094000,22.99151000,7.82787800,-0.00670522
11.13116253,-24.80622000,21.56127000,7.67408900,-0.00461368
11.21116253,-22.79158000,19.73118000,7.38188900,-0.00273745
11.29116253,-20.62315000,17.54737000,6.96665800,-0.00107653
11.37116253,-18.34707000,15.07136000,6.47453200,0.00039985
11.45116253,-15.96334000,12.42618000,5.92089000,0.00175320
11.53116253,-13.45657000,9.65797200,5.38262700,0.00310655
11.61116253,-10.82677000,6.84362600,4.85974400,0.00445989
