Time,Channel A,Channel B,Channel C,Channel D
(ns),(mV),(mV),(mV),(V)

-15.27384683,0.00000000,0.10765260,3.81397600,0.00787402
-15.19384682,0.00000000,0.27682080,3.66018700,0.00793553
-15.11384682,0.00000000,0.33833660,3.59867100,0.00805856
-15.03384682,0.00000000,0.35371550,3.59867100,0.00821235
-14.95384682,0.00000000,0.30757870,3.64480800,0.00836614
-14.87384682,0.00000000,0.23068400,3.72170300,0.00851993
-14.79384682,0.00000000,0.16916830,3.78321800,0.00858145
-14.71384682,0.00000000,0.09227362,3.84473400,0.00855069
-14.63384682,-0.01537894,0.04613681,3.89087100,0.00836614
-14.55384682,0.00000000,0.01537894,3.90625000,0.00805856
-14.47384681,0.01537894,0.00000000,3.92162900,0.00759720
-14.39384681,0.04613681,-0.01537894,3.93700800,0.00698204
-14.31384681,0.09227362,0.00000000,3.93700800,0.00621309
-14.23384681,0.16916830,0.00000000,3.95238700,0.00535187
-14.15384681,0.23068400,0.00000000,3.95238700,0.00442913
-14.07384681,0.30757870,0.00000000,3.95238700,0.00347564
-13.99384681,0.33833660,0.00000000,3.93700800,0.00255290
-13.91384681,0.33833660,0.00000000,3.93700800,0.00166093
-13.83384681,0.26144190,0.00000000,3.92162900,0.00092274
-13.75384680,0.10765260,0.00000000,3.92162900,0.00027682
-13.67384680,-0.12303150,0.00000000,3.93700800,-0.00024606
-13.59384680,-0.44598910,0.00000000,3.96776600,-0.00061516
-13.51384680,-0.83046260,0.00000000,4.02928100,-0.00086122
-13.43384680,-1.26107300,0.00000000,4.10617600,-0.00101501
-13.35384680,-1.73782000,0.00000000,4.18307100,-0.00107653
-13.27384680,-2.21456700,0.00000000,4.25996500,-0.00107653
-13.19384680,-2.67593500,0.00000000,4.29072300,-0.00101501
-13.11384680,-3.10654500,0.00000000,4.27534400,-0.00086122
-13.03384680,-3.47564000,-0.01537894,4.19845000,-0.00061516
-12.95384679,-3.78321800,0.00000000,4.02928100,-0.00024606
-12.87384679,-4.04466000,0.01537894,3.78321800,0.00027682
-12.79384679,-4.22920700,0.04613681,3.44488200,0.00098425
-12.71384679,-4.36761800,0.09227362,3.01427100,0.00187623
-12.63384679,-4.44451300,0.16916830,2.50676700,0.00286048
-12.55384679,-4.49065000,0.23068400,1.98388300,0.00393701
-12.47384679,-4.49065000,0.30757870,1.43024100,0.00504429
-12.39384679,-4.44451300,0.35371550,0.92273620,0.00605930
-12.31384679,-4.36761800,0.33833660,0.49212600,0.00688976
-12.23384678,-4.22920700,0.27682080,0.18454720,0.00750492
-12.15384678,-4.04466000,0.10765260,0.01537894,0.00781250
-12.07384678,-3.78321800,-0.13841040,0.01537894,0.00778174
-11.99384678,-3.47564000,-0.49212600,0.18454720,0.00741265
-11.91384678,-3.10654500,-0.92273620,0.49212600,0.00670522
-11.83384678,-2.67593500,-1.43024100,0.92273620,0.00572097
-11.75384678,-2.21456700,-1.96850400,1.43024100,0.00455217
-11.67384678,-1.73782000,-2.52214600,1.98388300,0.00335261
-11.59384678,-1.26107300,-3.01427100,2.50676700,0.00218381
-11.51384677,-0.83046260,-3.42950300,3.01427100,0.00116880
-11.43384677,-0.43061020,-3.73708200,3.44488200,0.00043061
-11.35384677,-0.12303150,-3.89087100,3.78321800,0.00006152
-11.27384677,0.09227362,-3.90625000,4.02928100,0.00006152
-11.19384677,0.21530510,-3.78321800,4.19845000,0.00043061
-11.11384677,0.24606300,-3.53715500,4.27534400,0.00116880
-11.03384677,0.18454720,-3.18344000,4.29072300,0.00218381
-10.95384677,0.06151574,-2.75283000,4.25996500,0.00335261
-10.87384677,-0.06151574,-2.27608300,4.18307100,0.00455217
-10.79384677,-0.18454720,-1.78395700,4.10617600,0.00572097
-10.71384676,-0.24606300,-1.26107300,4.02928100,0.00670522
-10.63384676,-0.23068400,-0.75356790,3.96776600,0.00741265
-10.55384676,-0.10765260,-0.24606300,3.93700800,0.00778174
-10.47384676,0.13841040,0.24606300,3.92162900,0.00778174
-10.39384676,0.47674700,0.75356790,3.92162900,0.00741265
-10.31384676,0.92273620,1.26107300,3.93700800,0.00670522
-10.23384676,1.43024100,1.78395700,3.93700800,0.00572097
-10.15384676,1.96850400,2.27608300,3.95238700,0.00455217
-10.07384676,2.52214600,2.75283000,3.95238700,0.00335261
-9.99384675,3.01427100,3.18344000,3.95238700,0.00218381
-9.91384675,3.44488200,3.53715500,3.93700800,0.00116880
-9.83384675,3.73708200,3.78321800,3.92162900,0.00046137
-9.75384675,3.90625000,3.90625000,3.92162900,0.00006152
-9.67384675,3.90625000,3.89087100,3.92162900,0.00003076
-9.59384675,3.73708200,3.73708200,3.92162900,0.00033834
-9.51384675,3.44488200,3.42950300,3.93700800,0.00098425
-9.43384675,3.01427100,3.01427100,3.95238700,0.00184547
-9.35384675,2.52214600,2.52214600,3.95238700,0.00286048
-9.27384674,1.96850400,1.96850400,3.95238700,0.00396777
-9.19384674,1.43024100,1.43024100,3.95238700,0.00501353
-9.11384674,0.92273620,0.92273620,3.93700800,0.00602854
-9.03384674,0.49212600,0.47674700,3.92162900,0.00688976
-8.95384674,0.13841040,0.13841040,3.92162900,0.00756644
-8.87384674,-0.10765260,-0.10765260,3.92162900,0.00805856
-8.79384674,-0.27682080,-0.23068400,3.92162900,0.00839690
-8.71384674,-0.33833660,-0.24606300,3.93700800,0.00855069
-8.63384674,-0.35371550,-0.18454720,3.95238700,0.00858145
-8.55384674,-0.30757870,-0.06151574,3.95238700,0.00851993
-8.47384673,-0.23068400,0.06151574,3.95238700,0.00836614
-8.39384673,-0.16916830,0.18454720,3.95238700,0.00821235
-8.31384673,-0.09227362,0.24606300,3.93700800,0.00805856
-8.23384673,-0.04613681,0.21530510,3.92162900,0.00793553
-8.15384673,-0.01537894,0.09227362,3.92162900,0.00784326
-8.07384673,0.00000000,-0.12303150,3.92162900,0.00784326
-7.99384673,0.01537894,-0.43061020,3.92162900,0.00793553
-7.91384673,0.00000000,-0.83046260,3.93700800,0.00805856
-7.83384673,0.00000000,-1.26107300,3.95238700,0.00821235
-7.75384672,0.00000000,-1.73782000,3.95238700,0.00836614
-7.67384672,0.00000000,-2.21456700,3.95238700,0.00851993
-7.59384672,0.00000000,-2.67593500,3.93700800,0.00858145
-7.51384672,0.00000000,-3.10654500,3.93700800,0.00858145
-7.43384672,0.01537894,-3.47564000,3.92162900,0.00842766
-7.35384672,0.00000000,-3.78321800,3.92162900,0.00808932
-7.27384672,-0.01537894,-4.04466000,3.93700800,0.00753568
-7.19384672,-0.04613681,-4.22920700,3.96776600,0.00679749
-7.11384672,-0.09227362,-4.36761800,4.02928100,0.00584400
-7.03384672,-0.16916830,-4.44451300,4.10617600,0.00470596
-6.95384671,-0.23068400,-4.49065000,4.18307100,0.00347564
-6.87384671,-0.30757870,-4.49065000,4.25996500,0.00224533
-6.79384671,-0.33833660,-4.44451300,4.29072300,0.00116880
-6.71384671,-0.33833660,-4.36761800,4.27534400,0.00030758
-6.63384671,-0.26144190,-4.22920700,4.18307100,-0.00018455
-6.55384671,-0.10765260,-4.04466000,4.02928100,-0.00018455
-6.47384671,0.12303150,-3.78321800,3.79859700,0.00030758
-6.39384671,0.44598910,-3.47564000,3.49101900,0.00135335
-6.31384671,0.83046260,-3.10654500,3.10654500,0.00282972
-6.23384670,1.26107300,-2.67593500,2.67593500,0.00470596
-6.15384670,1.73782000,-2.21456700,2.21456700,0.00682825
-6.07384670,2.21456700,-1.73782000,1.73782000,0.00898130
-5.99384670,2.67593500,-1.27645200,1.27645200,0.01107283
-5.91384670,3.09116600,-0.83046260,0.83046260,0.01291831
-5.83384670,3.46026100,-0.46136810,0.46136810,0.01436393
-5.75384670,3.78321800,-0.13841040,0.13841040,0.01537894
-5.67384670,4.04466000,0.12303150,-0.12303150,0.01587106
-5.59384670,4.27534400,0.30757870,-0.30757870,0.01587106
-5.51384669,4.45989200,0.43061020,-0.43061020,0.01544045
-5.43384669,4.61368100,0.50750490,-0.50750490,0.01464075
-5.35384669,4.73671200,0.53826270,-0.53826270,0.01356422
-5.27384669,4.79822800,0.53826270,-0.53826270,0.01233391
-5.19384669,4.79822800,0.50750490,-0.50750490,0.01107283
-5.11384669,4.70595500,0.43061020,-0.43061020,0.00990404
-5.03384669,4.49065000,0.30757870,-0.30757870,0.00891978
-4.95384669,4.15231300,0.12303150,-0.12303150,0.00815084
-4.87384669,3.66018700,-0.13841040,0.13841040,0.00759720
-4.79384669,3.02965000,-0.49212600,0.46136810,0.00728962
-4.71384668,2.27608300,-0.93811510,0.83046260,0.00716658
-4.63384668,1.39948300,-1.43024100,1.27645200,0.00719734
-4.55384668,0.47674700,-1.96850400,1.73782000,0.00728962
-4.47384668,-0.47674700,-2.52214600,2.21456700,0.00744341
-4.39384668,-1.41486200,-3.01427100,2.67593500,0.00756644
-4.31384668,-2.27608300,-3.44488200,3.10654500,0.00768947
-4.23384668,-3.04502900,-3.73708200,3.49101900,0.00778174
-4.15384668,-3.66018700,-3.90625000,3.79859700,0.00781250
-4.07384668,-4.13693400,-3.90625000,4.02928100,0.00784326
-3.99384667,-4.44451300,-3.73708200,4.18307100,0.00787402
-3.91384667,-4.61368100,-3.44488200,4.27534400,0.00787402
-3.83384667,-4.62906000,-3.01427100,4.29072300,0.00790477
-3.75384667,-4.56754400,-2.52214600,4.25996500,0.00790477
-3.67384667,-4.42913300,-1.96850400,4.18307100,0.00790477
-3.59384667,-4.27534400,-1.43024100,4.10617600,0.00790477
-3.51384667,-4.12155500,-0.92273620,4.02928100,0.00787402
-3.43384667,-3.99852300,-0.49212600,3.96776600,0.00787402
-3.35384667,-3.93700800,-0.13841040,3.93700800,0.00784326
-3.27384666,-3.92162900,0.10765260,3.92162900,0.00781250
-3.19384666,-3.95238700,0.27682080,3.92162900,0.00778174
-3.11384666,-4.01390200,0.33833660,3.93700800,0.00768947
-3.03384666,-4.10617600,0.35371550,3.93700800,0.00756644
-2.95384666,-4.18307100,0.30757870,3.95238700,0.00744341
-2.87384666,-4.25996500,0.23068400,3.95238700,0.00728962
-2.79384666,-4.29072300,0.15378940,3.95238700,0.00719734
-2.71384666,-4.27534400,0.09227362,3.93700800,0.00719734
-2.63384666,-4.18307100,0.03075787,3.92162900,0.00732037
-2.55384666,-4.02928100,0.00000000,3.92162900,0.00762795
-2.47384665,-3.79859700,0.00000000,3.92162900,0.00808932
-2.39384665,-3.49101900,0.03075787,3.92162900,0.00873524
-2.31384665,-3.10654500,0.09227362,3.93700800,0.00953494
-2.23384665,-2.67593500,0.15378940,3.95238700,0.01042692
-2.15384665,-2.21456700,0.23068400,3.95238700,0.01138041
-2.07384665,-1.73782000,0.30757870,3.95238700,0.01233391
-1.99384665,-1.26107300,0.33833660,3.95238700,0.01322589
-1.91384665,-0.83046260,0.33833660,3.95238700,0.01408711
-1.83384665,-0.44598910,0.26144190,3.95238700,0.01479454
-1.75384664,-0.12303150,0.10765260,3.93700800,0.01540969
-1.67384664,0.10765260,-0.12303150,3.89087100,0.01593258
-1.59384664,0.26144190,-0.44598910,3.79859700,0.01633243
-1.51384664,0.33833660,-0.83046260,3.64480800,0.01660925
-1.43384664,0.33833660,-1.26107300,3.46026100,0.01679380
-1.35384664,0.30757870,-1.73782000,3.24495600,0.01688607
-1.27384664,0.23068400,-2.21456700,3.04502900,0.01688607
-1.19384664,0.15378940,-2.67593500,3.04502900,0.01679380
-1.11384664,0.09227362,-3.10654500,3.35260800,0.01660925
-1.03384663,0.03075787,-3.47564000,3.76783900,0.01633243
-0.95384663,0.00000000,-3.78321800,3.99852300,0.01593258
-0.87384663,0.00000000,-4.04466000,3.66018700,0.01540969
-0.79384663,0.03075787,-4.22920700,2.46063000,0.01470226
-0.71384663,0.09227362,-4.36761800,0.26144190,0.01387180
-0.63384663,0.15378940,-4.44451300,-2.79896600,0.01291831
-0.55384663,0.23068400,-4.49065000,-6.22846900,0.01187254
-0.47384663,0.30757870,-4.49065000,-9.18122500,0.01076526
-0.39384663,0.33833660,-4.45989200,-10.42692000,0.00975025
-0.31384663,0.32295760,-4.36761800,-8.59682500,0.00885827
-0.23384662,0.23068400,-4.24458600,-2.62979800,0.00821235
-0.15384662,0.09227362,-4.04466000,8.25848900,0.00787402
-0.07384662,-0.09227362,-3.78321800,24.43713000,0.00790477
0.00615338,-0.30757870,-3.42950300,45.73695000,0.00830463
0.08615338,-0.53826270,-2.99889300,71.48130000,0.00904282
0.16615338,-0.78432570,-2.50676700,100.57820000,0.01005782
0.24615338,-1.03038900,-1.98388300,131.58220000,0.01125738
0.32615338,-1.30720900,-1.43024100,162.87830000,0.01245694
0.40615338,-1.70706200,-0.92273620,192.91340000,0.01359498
0.48615339,-2.32221900,-0.49212600,220.27250000,0.01454847
0.56615339,-3.02965000,-0.16916830,243.86380000,0.01522515
0.64615339,-3.67556500,-0.01537894,262.91830000,0.01562500
0.72615339,-4.07541800,-0.03075787,277.14380000,0.01568652
0.80615339,-4.06003900,-0.23068400,286.58650000,0.01544045
0.88615339,-3.53715500,-0.58439960,291.58460000,0.01494833
0.96615339,-2.56828200,-1.09190400,292.73800000,0.01427165
1.04615339,-1.41486200,-1.67630400,290.64650000,0.01341043
1.12615339,-0.49212600,-2.27608300,285.89440000,0.01245694
1.20615339,-0.55364170,-2.87586100,278.91240000,0.01141117
1.28615340,-2.35297700,-3.38336600,269.94650000,0.01033465
1.36615340,-6.16695300,-3.75246000,259.11970000,0.00925812
1.44615340,-12.04171000,-3.92162900,246.38590000,0.00827387
1.52615340,-19.74655000,-3.84473400,231.63750000,0.00747416
1.60615340,-28.88164000,-3.49101900,214.82840000,0.00685901
1.68615340,-38.98560000,-2.87586100,196.00450000,0.00648991
1.76615340,-49.72010000,-2.04539800,175.36600000,0.00627461
1.84615340,-60.90059000,-1.09190400,153.32800000,0.00618233
1.92615340,-72.63471000,-0.15378940,130.52100000,0.00605930
2.00615341,-85.62991000,0.55364170,107.68330000,0.00550566
2.08615341,-100.65510000,0.79970470,85.66068000,0.00433686
2.16615341,-118.09480000,0.64591530,65.26820000,0.00264518
2.24615341,-138.11820000,0.23068400,47.21333000,0.00083046
2.32615341,-160.55610000,-0.21530510,31.97281000,-0.00070743
2.40615341,-185.05470000,-0.49212600,19.76193000,-0.00156865
2.48615341,-210.99900000,-0.46136810,10.48843000,-0.00156865
2.56615341,-237.66610000,-0.12303150,3.82935500,-0.00070743
2.64615341,-264.33310000,0.29219980,-0.79970470,0.00049213
2.72615342,-290.43120000,0.33833660,-4.16769200,0.00110728
2.80615342,-315.76030000,-0.86122040,-6.98203700,-0.00039985
2.88615342,-340.27440000,-4.15231300,-9.61183500,-0.00565945
2.96615342,-363.68110000,-9.95017100,-12.18012000,-0.01544045
3.04615342,-385.73450000,-18.37783000,-14.59461000,-0.03011196
3.12615342,-406.14230000,-29.26612000,-16.65539000,-0.04942790
3.20615342,-424.64320000,-42.19980000,-18.10101000,-0.07274237
3.28615342,-440.97560000,-56.65600000,-18.73154000,-0.09910187
3.36615342,-454.93970000,-72.14259000,-18.45472000,-0.12755290
3.44615342,-466.44310000,-88.27509000,-17.30130000,-0.15729580
3.52615343,-475.43980000,-104.91510000,-15.60962000,-0.18783830
3.60615343,-482.17580000,-122.44710000,-13.73339000,-0.21948820
3.68615343,-486.89710000,-141.40930000,-11.85716000,-0.25286050
3.76615343,-489.69610000,-162.00170000,-10.11934000,-0.28817050
3.84615343,-490.58810000,-184.33190000,-8.56606700,-0.32563360
3.92615343,-489.51150000,-208.27690000,-7.16658400,-0.36518820
4.00615343,-486.37420000,-233.54450000,-5.90551100,-0.40646530
4.08615343,-481.06850000,-259.59650000,-4.72133400,-0.44878810
4.16615343,-473.56360000,-285.83290000,-3.53715500,-0.49120320
4.24615344,-463.87480000,-311.56190000,-2.32221900,-0.53251110
4.32615344,-452.09460000,-336.15280000,-1.09190400,-0.57145050
4.40615344,-438.51500000,-359.23660000,0.12303150,-0.60697590
4.48615344,-423.67430000,-380.55180000,1.29183100,-0.63801060
4.56615344,-408.09550000,-399.68320000,2.41449300,-0.66363190
4.64615344,-392.27050000,-416.32320000,3.44488200,-0.68310160
4.72615344,-376.58400000,-430.19500000,4.36761800,-0.69589690
4.80615344,-361.28200000,-441.12940000,5.18270100,-0.70192550
4.88615344,-346.37980000,-449.01880000,5.85937500,-0.70137180
4.96615345,-331.75440000,-453.90930000,6.41301600,-0.69472810
5.04615345,-317.15980000,-455.92400000,6.84362600,-0.68267100
5.12615345,-302.08840000,-455.26260000,7.18196300,-0.66609250
5.20615345,-286.17120000,-452.24840000,7.45878400,-0.64582310
5.28615345,-269.54660000,-447.26560000,7.65871000,-0.62281620
5.36615345,-252.56830000,-440.56040000,7.79712100,-0.59768700
5.44615345,-235.71300000,-432.25570000,7.85863600,-0.57089690
5.52615345,-219.50360000,-422.44400000,7.81250000,-0.54272270
5.60615345,-204.38610000,-411.14050000,7.64333200,-0.51325670
5.68615345,-190.59120000,-398.31450000,7.35113100,-0.48252950
5.76615346,-178.08810000,-383.95050000,6.96665800,-0.45051060
5.84615346,-166.64620000,-368.12560000,6.47453200,-0.41735360
5.92615346,-155.58870000,-350.88580000,5.92089000,-0.38315080
6.00615346,-144.25440000,-332.47720000,5.38262700,-0.34830220
6.08615346,-132.47420000,-313.42270000,4.85974400,-0.31373030
6.16615346,-120.32480000,-294.30670000,4.41375400,-0.28048100
6.24615346,-108.05240000,-275.68280000,4.06003900,-0.24960010
6.32615346,-96.01070000,-258.04320000,3.81397600,-0.22197960
6.40615346,-84.56877000,-241.68000000,3.66018700,-0.19811150
6.48615347,-73.98806000,-226.65480000,3.59867100,-0.17811890
6.56615347,-64.37622000,-212.84450000,3.59867100,-0.16163260
6.64615347,-55.73326000,-199.94150000,3.64480800,-0.14803760
6.72615347,-47.69008000,-187.31540000,3.72170300,-0.13601130
6.80615347,-39.87758000,-174.47400000,3.78321800,-0.12444640
6.88615347,-32.34190000,-161.40190000,3.84473400,-0.11303520
6.96615347,-25.20608000,-148.29910000,3.89087100,-0.10180860
7.04615347,-18.65465000,-135.54990000,3.90625000,-0.09119710
7.12615347,-12.96444000,-123.58510000,3.92162900,-0.08172367
7.20615348,-8.28924700,-112.75840000,3.93700800,-0.07391117
7.28615348,-4.78284900,-103.31570000,3.93700800,-0.06812869
7.36615348,-2.38373500,-95.25713000,3.95238700,-0.06437623
7.44615348,-0.98425190,-88.41350000,3.95238700,-0.06243848
7.52615348,-0.21530510,-82.20041000,3.95238700,-0.06145423
7.60615348,0.21530510,-76.06422000,3.95238700,-0.06059301
7.68615348,0.43061020,-69.86650000,3.93700800,-0.05948573
7.76615348,0.46136810,-63.69955000,3.93700800,-0.05797859
7.84615348,0.23068400,-57.73252000,3.92162900,-0.05601009
7.92615348,-0.32295760,-52.25763000,3.90625000,-0.05376476
8.00615349,-1.30720900,-47.52091000,3.89087100,-0.05139641
8.08615349,-2.76820900,-43.72231000,3.84473400,-0.04915108
8.16615349,-4.69057600,-40.86183000,3.78321800,-0.04715182
8.24615349,-6.99741600,-38.80106000,3.72170300,-0.04546014
8.32615349,-9.51956200,-37.15551000,3.64480800,-0.04398376
8.40615349,-12.04171000,-35.46383000,3.59867100,-0.04253814
8.48615349,-14.48696000,-33.54146000,3.59867100,-0.04124631
8.56615349,-16.73228000,-31.29613000,3.66018700,-0.04016978
8.64615349,-18.73154000,-28.78937000,3.81397600,-0.03943159
8.72615350,-20.42323000,-26.09805000,4.06003900,-0.03912402
8.80615350,-21.82271000,-23.40674000,4.41375400,-0.03927780
8.88615350,-22.94537000,-20.82308000,4.85974400,-0.03992372
8.96615350,-23.83735000,-18.43934000,5.38262700,-0.04096949
9.04615350,-24.51402000,-16.28629000,5.92089000,-0.04226132
9.12615350,-25.06767000,-14.24089000,6.47453200,-0.04361467
9.20615350,-25.54441000,-12.13398000,6.96665800,-0.04484498
9.28615350,-26.02116000,-9.91941400,7.38188900,-0.04582923
9.36615350,-26.52866000,-7.58181600,7.67408900,-0.04650591
9.44615351,-27.12844000,-5.15194400,7.82787800,-0.04693652
9.52615351,-27.80512000,-2.69131400,7.82787800,-0.04715182
9.60615351,-28.54330000,-0.24606300,7.67408900,-0.04715182
9.68615351,-29.31225000,2.09153500,7.38188900,-0.04702879
9.76615351,-30.05044000,4.29072300,6.96665800,-0.04681348
9.84615351,-30.72711000,6.32074300,6.47453200,-0.04644439
9.92615351,-31.26538000,8.24311000,5.92089000,-0.04589075
10.00615351,-31.63447000,10.05782000,5.38262700,-0.04506028
10.08615351,-31.81902000,11.78026000,4.85974400,-0.04386073
10.16615351,-31.77288000,13.42581000,4.41375400,-0.04229208
10.24615352,-31.55758000,14.96371000,4.06003900,-0.04035433
10.32615352,-31.15772000,16.39395000,3.81397600,-0.03801673
10.40615352,-30.63484000,17.70115000,3.66018700,-0.03537155
10.48615352,-29.98893000,18.88533000,3.59867100,-0.03241880
10.56615352,-29.23536000,19.90034000,3.59867100,-0.02925074
10.64615352,-28.35876000,20.73080000,3.64480800,-0.02595965
10.72615352,-27.34375000,21.33058000,3.72170300,-0.02254552
10.80615352,-26.09805000,21.66892000,3.78321800,-0.01910064
10.88615352,-24.59092000,21.62278000,3.84473400,-0.01565576
10.96615353,-22.80696000,21.16142000,3.89087100,-0.01233391
11.04615353,-20.74619000,20.25406000,3.90625000,-0.00925812
11.12615353,-18.42397000,18.86995000,3.92162900,-0.00648991
11.20615353,-15.91720000,17.03986000,3.93700800,-0.00409080
11.28615353,-13.24126000,14.84067000,3.93700800,-0.00206078
11.36615353,-10.45768000,12.31853000,3.95238700,-0.00039985
11.44615353,-7.62795300,9.55032000,3.95238700,0.00101501
11.52615353,-4.76747000,6.62832200,3.95238700,0.00224533
11.60615353,-1.87623000,3.56791300,3.95238700,0.00344488
11.68615353,1.01501000,0.38447340,3.93700800,0.00464444
11.76615354,3.84473400,-2.87586100,3.93700800,0.00593627
