Time,Channel A,Channel B,Channel C,Channel D
(ns),(mV),(mV),(mV),(V)

-15.22424283,0.12303150,-4.06003900,3.79859700,0.00784326
-15.14424282,0.44598910,-4.44451300,3.49101900,0.00784326
-15.06424282,0.83046260,-4.95201700,3.10654500,0.00787402
-14.98424282,1.26107300,-5.53641700,2.67593500,0.00790477
-14.90424282,1.73782000,-6.16695300,2.21456700,0.00790477
-14.82424282,2.21456700,-6.78211100,1.73782000,0.00790477
-14.74424282,2.67593500,-7.32037400,1.27645200,0.00790477
-14.66424282,3.10654500,-7.72022600,0.83046260,0.00787402
-14.58424282,3.47564000,-7.95091000,0.46136810,0.00784326
-14.50424282,3.78321800,-7.95091000,0.13841040,0.00784326
-14.42424281,4.04466000,-7.67408900,-0.12303150,0.00784326
-14.34424281,4.22920700,-7.13582600,-0.30757870,0.00784326
-14.26424281,4.36761800,-6.35150100,-0.43061020,0.00787402
-14.18424281,4.44451300,-5.36724900,-0.50750490,0.00790477
-14.10424281,4.49065000,-4.25996500,-0.53826270,0.00790477
-14.02424281,4.49065000,-3.10654500,-0.53826270,0.00790477
-13.94424281,4.44451300,-2.01464100,-0.50750490,0.00787402
-13.86424281,4.36761800,-1.09190400,-0.43061020,0.00787402
-13.78424281,4.22920700,-0.41523130,-0.30757870,0.00784326
-13.70424280,4.04466000,-0.04613681,-0.12303150,0.00784326
-13.62424280,3.78321800,-0.03075787,0.13841040,0.00787402
-13.54424280,3.47564000,-0.35371550,0.46136810,0.00793553
-13.46424280,3.10654500,-0.98425190,0.83046260,0.00805856
-13.38424280,2.67593500,-1.84547200,1.27645200,0.00821235
-13.30424280,2.21456700,-2.86048200,1.73782000,0.00836614
-13.22424280,1.73782000,-3.95238700,2.21456700,0.00851993
-13.14424280,1.26107300,-5.02891200,2.67593500,0.00858145
-13.06424280,0.83046260,-6.01316400,3.10654500,0.00855069
-12.98424280,0.44598910,-6.87438400,3.49101900,0.00839690
-12.90424279,0.12303150,-7.56643700,3.79859700,0.00805856
-12.82424279,-0.10765260,-8.08932000,4.02928100,0.00756644
-12.74424279,-0.26144190,-8.44303500,4.18307100,0.00688976
-12.66424279,-0.33833660,-8.65834000,4.27534400,0.00602854
-12.58424279,-0.33833660,-8.75061400,4.29072300,0.00501353
-12.50424279,-0.30757870,-8.75061400,4.25996500,0.00396777
-12.42424279,-0.23068400,-8.68909800,4.18307100,0.00286048
-12.34424279,-0.16916830,-8.56606700,4.10617600,0.00184547
-12.26424279,-0.09227362,-8.39689900,4.02928100,0.00098425
-12.18424278,-0.04613681,-8.19697300,3.96776600,0.00036909
-12.10424278,-0.01537894,-7.96628900,3.93700800,0.00003076
-12.02424278,0.00000000,-7.70484700,3.92162900,0.00003076
-11.94424278,0.01537894,-7.39726800,3.92162900,0.00036909
-11.86424278,0.00000000,-7.02817400,3.93700800,0.00098425
-11.78424278,0.00000000,-6.61294300,3.93700800,0.00184547
-11.70424278,0.00000000,-6.16695300,3.95238700,0.00286048
-11.62424278,0.00000000,-5.69020700,3.95238700,0.00396777
-11.54424278,0.00000000,-5.21345900,3.95238700,0.00501353
-11.46424277,0.00000000,-4.76747000,3.93700800,0.00602854
-11.38424277,-0.01537894,-4.36761800,3.92162900,0.00688976
-11.30424277,0.00000000,-4.04466000,3.92162900,0.00756644
-11.22424277,0.01537894,-3.81397600,3.92162900,0.00805856
-11.14424277,0.04613681,-3.66018700,3.92162900,0.00839690
-11.06424277,0.09227362,-3.59867100,3.93700800,0.00855069
-10.98424277,0.16916830,-3.59867100,3.95238700,0.00858145
-10.90424277,0.23068400,-3.64480800,3.95238700,0.00851993
-10.82424277,0.30757870,-3.72170300,3.95238700,0.00836614
-10.74424277,0.35371550,-3.78321800,3.95238700,0.00821235
-10.66424276,0.33833660,-3.84473400,3.93700800,0.00805856
-10.58424276,0.27682080,-3.89087100,3.92162900,0.00793553
-10.50424276,0.10765260,-3.90625000,3.92162900,0.00787402
-10.42424276,-0.13841040,-3.92162900,3.92162900,0.00784326
-10.34424276,-0.49212600,-3.93700800,3.92162900,0.00784326
-10.26424276,-0.92273620,-3.93700800,3.93700800,0.00787402
-10.18424276,-1.43024100,-3.95238700,3.95238700,0.00787402
-10.10424276,-1.96850400,-3.95238700,3.95238700,0.00790477
-10.02424276,-2.52214600,-3.95238700,3.95238700,0.00790477
-9.94424275,-3.01427100,-3.95238700,3.95238700,0.00790477
-9.86424275,-3.44488200,-3.93700800,3.93700800,0.00787402
-9.78424275,-3.73708200,-3.92162900,3.92162900,0.00784326
-9.70424275,-3.90625000,-3.92162900,3.92162900,0.00784326
-9.62424275,-3.90625000,-3.92162900,3.92162900,0.00784326
-9.54424275,-3.73708200,-3.92162900,3.92162900,0.00784326
-9.46424275,-3.44488200,-3.93700800,3.93700800,0.00787402
-9.38424275,-3.01427100,-3.95238700,3.95238700,0.00790477
-9.30424275,-2.52214600,-3.95238700,3.95238700,0.00790477
-9.22424274,-1.96850400,-3.95238700,3.95238700,0.00790477
-9.14424274,-1.43024100,-3.95238700,3.95238700,0.00787402
-9.06424274,-0.93811510,-3.93700800,3.93700800,0.00787402
-8.98424274,-0.49212600,-3.92162900,3.92162900,0.00784326
-8.90424274,-0.13841040,-3.92162900,3.92162900,0.00784326
-8.82424274,0.12303150,-3.92162900,3.92162900,0.00787402
-8.74424274,0.30757870,-3.92162900,3.92162900,0.00793553
-8.66424274,0.43061020,-3.93700800,3.93700800,0.00805856
-8.58424274,0.50750490,-3.95238700,3.95238700,0.00821235
-8.50424274,0.53826270,-3.95238700,3.95238700,0.00836614
-8.42424273,0.53826270,-3.95238700,3.95238700,0.00851993
-8.34424273,0.50750490,-3.95238700,3.95238700,0.00858145
-8.26424273,0.43061020,-3.93700800,3.93700800,0.00855069
-8.18424273,0.30757870,-3.92162900,3.92162900,0.00839690
-8.10424273,0.12303150,-3.92162900,3.92162900,0.00805856
-8.02424273,-0.13841040,-3.92162900,3.92162900,0.00756644
-7.94424273,-0.49212600,-3.92162900,3.92162900,0.00688976
-7.86424273,-0.93811510,-3.93700800,3.93700800,0.00602854
-7.78424273,-1.43024100,-3.95238700,3.95238700,0.00501353
-7.70424272,-1.96850400,-3.95238700,3.95238700,0.00396777
-7.62424272,-2.52214600,-3.95238700,3.95238700,0.00286048
-7.54424272,-3.01427100,-3.95238700,3.95238700,0.00184547
-7.46424272,-3.44488200,-3.93700800,3.93700800,0.00098425
-7.38424272,-3.73708200,-3.92162900,3.93700800,0.00036909
-7.30424272,-3.90625000,-3.92162900,3.92162900,0.00003076
-7.22424272,-3.90625000,-3.92162900,3.90625000,0.00003076
-7.14424272,-3.73708200,-3.92162900,3.89087100,0.00036909
-7.06424272,-3.44488200,-3.93700800,3.84473400,0.00098425
-6.98424272,-3.01427100,-3.95238700,3.78321800,0.00184547
-6.90424271,-2.52214600,-3.95238700,3.72170300,0.00286048
-6.82424271,-1.96850400,-3.95238700,3.64480800,0.00396777
-6.74424271,-1.43024100,-3.95238700,3.59867100,0.00501353
-6.66424271,-0.92273620,-3.93700800,3.58329200,0.00599779
-6.58424271,-0.49212600,-3.92162900,3.64480800,0.00685901
-6.50424271,-0.13841040,-3.92162900,3.79859700,0.00756644
-6.42424271,0.10765260,-3.92162900,4.07541800,0.00808932
-6.34424271,0.27682080,-3.92162900,4.45989200,0.00848917
-6.26424271,0.33833660,-3.93700800,4.95201700,0.00873524
-6.18424270,0.35371550,-3.95238700,5.53641700,0.00891978
-6.10424270,0.30757870,-3.95238700,6.16695300,0.00898130
-6.02424270,0.23068400,-3.95238700,6.78211100,0.00898130
-5.94424270,0.16916830,-3.95238700,7.32037400,0.00891978
-5.86424270,0.09227362,-3.93700800,7.72022600,0.00873524
-5.78424270,0.04613681,-3.92162900,7.95091000,0.00848917
-5.70424270,0.01537894,-3.92162900,7.95091000,0.00808932
-5.62424270,0.00000000,-3.92162900,7.67408900,0.00756644
-5.54424270,-0.01537894,-3.92162900,7.13582600,0.00685901
-5.46424269,0.00000000,-3.93700800,6.35150100,0.00599779
-5.38424269,0.00000000,-3.95238700,5.36724900,0.00501353
-5.30424269,0.00000000,-3.95238700,4.25996500,0.00396777
-5.22424269,0.00000000,-3.95238700,3.10654500,0.00286048
-5.14424269,0.00000000,-3.95238700,2.01464100,0.00184547
-5.06424269,0.00000000,-3.93700800,1.07652500,0.00098425
-4.98424269,0.00000000,-3.93700800,0.38447340,0.00036909
-4.90424269,0.00000000,-3.92162900,0.04613681,0.00003076
-4.82424269,0.00000000,-3.90625000,0.06151574,0.00003076
-4.74424269,0.00000000,-3.89087100,0.44598910,0.00036909
-4.66424268,0.00000000,-3.84473400,1.16879900,0.00098425
-4.58424268,0.00000000,-3.78321800,2.16843000,0.00184547
-4.50424268,0.00000000,-3.72170300,3.33722900,0.00286048
-4.42424268,0.00000000,-3.64480800,4.56754400,0.00396777
-4.34424268,0.00000000,-3.59867100,5.72096400,0.00501353
-4.26424268,0.00000000,-3.59867100,6.70521600,0.00602854
-4.18424268,0.00000000,-3.66018700,7.41264700,0.00688976
-4.10424268,0.00000000,-3.81397600,7.79712100,0.00756644
-4.02424268,0.00000000,-4.06003900,7.81250000,0.00805856
-3.94424267,0.00000000,-4.41375400,7.45878400,0.00839690
-3.86424267,0.00000000,-4.85974400,6.79749000,0.00855069
-3.78424267,0.00000000,-5.38262700,5.89013200,0.00858145
-3.70424267,0.00000000,-5.92089000,4.79822800,0.00851993
-3.62424267,0.00000000,-6.47453200,3.64480800,0.00836614
-3.54424267,0.00000000,-6.96665800,2.52214600,0.00821235
-3.46424267,0.00000000,-7.38188900,1.52251500,0.00805856
-3.38424267,0.00000000,-7.67408900,0.70743110,0.00793553
-3.30424267,0.00000000,-7.82787800,0.16916830,0.00787402
-3.22424266,0.00000000,-7.82787800,-0.09227362,0.00784326
-3.14424266,0.00000000,-7.67408900,-0.09227362,0.00784326
-3.06424266,0.00000000,-7.38188900,0.15378940,0.00787402
-2.98424266,0.00000000,-6.96665800,0.56902060,0.00787402
-2.90424266,0.00000000,-6.47453200,1.12266200,0.00790477
-2.82424266,0.00000000,-5.92089000,1.73782000,0.00790477
-2.74424266,0.00000000,-5.36724900,2.35297700,0.00790477
-2.66424266,0.00000000,-4.85974400,2.92199800,0.00787402
-2.58424266,-0.01537894,-4.39837600,3.39874500,0.00784326
-2.50424266,0.00000000,-4.06003900,3.76783900,0.00784326
-2.42424265,0.01537894,-3.81397600,4.04466000,0.00784326
-2.34424265,0.04613681,-3.70632400,4.21382900,0.00784326
-2.26424265,0.09227362,-3.69094500,4.29072300,0.00787402
-2.18424265,0.16916830,-3.76783900,4.29072300,0.00790477
-2.10424265,0.23068400,-3.89087100,4.25996500,0.00790477
-2.02424265,0.30757870,-4.01390200,4.18307100,0.00790477
-1.94424265,0.35371550,-4.12155500,4.12155500,0.00787402
-1.86424265,0.33833660,-4.18307100,4.07541800,0.00787402
-1.78424265,0.27682080,-4.15231300,4.04466000,0.00784326
-1.70424264,0.10765260,-4.01390200,3.98314500,0.00784326
-1.62424264,-0.13841040,-3.79859700,3.84473400,0.00787402
-1.54424264,-0.49212600,-3.49101900,3.61405000,0.00793553
-1.46424264,-0.92273620,-3.10654500,3.26033400,0.00805856
-1.38424264,-1.43024100,-2.67593500,2.81434500,0.00821235
-1.30424264,-1.96850400,-2.21456700,2.29146100,0.00836614
-1.22424264,-2.52214600,-1.73782000,1.83009300,0.00851993
-1.14424264,-3.01427100,-1.26107300,1.66092500,0.00858145
-1.06424264,-3.44488200,-0.83046260,2.01464100,0.00855069
-0.98424263,-3.73708200,-0.44598910,2.73745100,0.00839690
-0.90424263,-3.90625000,-0.12303150,3.56791300,0.00805856
-0.82424263,-3.90625000,0.10765260,4.16769200,0.00756644
-0.74424263,-3.73708200,0.26144190,4.19845000,0.00688976
-0.66424263,-3.44488200,0.33833660,3.47564000,0.00602854
-0.58424263,-3.01427100,0.33833660,2.10691400,0.00501353
-0.50424263,-2.52214600,0.30757870,0.49212600,0.00396777
-0.42424263,-1.96850400,0.23068400,-0.63053640,0.00286048
-0.34424263,-1.44562000,0.15378940,-0.13841040,0.00184547
-0.26424263,-0.98425190,0.09227362,3.21419800,0.00098425
-0.18424262,-0.56902060,0.03075787,10.64222000,0.00033834
-0.10424262,-0.19992620,0.00000000,23.08378000,0.00003076
-0.02424262,0.19992620,0.00000000,41.10789000,0.00006152
0.05575738,0.66129420,0.03075787,64.74532000,0.00046137
0.13575738,1.19955700,0.09227362,93.38090000,0.00116880
0.21575738,1.81471400,0.15378940,125.83050000,0.00218381
0.29575738,2.42987200,0.23068400,160.29470000,0.00335261
0.37575738,2.96813500,0.30757870,194.63580000,0.00455217
0.45575738,3.16806100,0.33833660,226.53170000,0.00572097
0.53575739,2.81434500,0.33833660,253.76780000,0.00667446
0.61575739,1.93774600,0.26144190,274.43710000,0.00738189
0.69575739,0.69205210,0.10765260,287.14010000,0.00778174
0.77575739,-0.69205210,-0.12303150,291.18480000,0.00784326
0.85575739,-1.98388300,-0.44598910,286.60190000,0.00759720
0.93575739,-3.01427100,-0.83046260,274.14490000,0.00707431
1.01575739,-3.78321800,-1.26107300,255.13650000,0.00636688
1.09575739,-4.50602900,-1.73782000,231.33000000,0.00550566
1.17575739,-5.62869100,-2.21456700,204.67830000,0.00455217
1.25575739,-8.01242500,-2.70669300,177.10380000,0.00350640
1.33575740,-12.54921000,-3.19881900,150.28300000,0.00239911
1.41575740,-19.65428000,-3.61405000,125.56900000,0.00132259
1.49575740,-29.43528000,-3.87549200,103.79240000,0.00036909
1.57575740,-41.75381000,-3.89087100,85.32233000,-0.00030758
1.65575740,-56.17925000,-3.58329200,70.06643000,-0.00064592
1.73575740,-72.15797000,-2.93737700,57.64025000,-0.00064592
1.81575740,-89.15169000,-2.01464100,47.38250000,-0.00030758
1.89575740,-106.72980000,-0.93811510,38.64727000,0.00018455
1.97575740,-124.73850000,0.07689468,30.78863000,0.00058440
2.05575741,-143.51620000,0.61515740,23.37598000,0.00033834
2.13575741,-163.52420000,0.33833660,16.22478000,-0.00095349
2.21575741,-184.94710000,-0.81508360,9.33501400,-0.00326034
2.29575741,-207.76940000,-2.73745100,2.93737700,-0.00624385
2.37575741,-231.80670000,-5.21345900,-2.70669300,-0.00941191
2.45575741,-256.72060000,-7.93553100,-7.32037400,-0.01230315
2.53575741,-281.97280000,-10.70374000,-10.68836000,-0.01454847
2.61575741,-307.02510000,-13.42581000,-12.77990000,-0.01614788
2.69575741,-331.29300000,-16.20940000,-13.70263000,-0.01753199
2.77575742,-354.31530000,-19.43897000,-13.84104000,-0.01962352
2.85575742,-375.99960000,-23.94500000,-13.64112000,-0.02414493
2.93575742,-396.26910000,-30.58870000,-13.27202000,-0.03278789
3.01575742,-414.90830000,-39.83145000,-12.79527000,-0.04669045
3.09575742,-431.68670000,-51.82701000,-12.16474000,-0.06640625
3.17575742,-446.35820000,-66.46776000,-11.30352000,-0.09190453
3.25575742,-458.69210000,-83.38459000,-10.11934000,-0.12260090
3.33575742,-468.48850000,-102.00850000,-8.50455100,-0.15748030
3.41575742,-475.63970000,-121.72430000,-6.47453200,-0.19528170
3.49575742,-480.13040000,-141.99370000,-4.07541800,-0.23462110
3.57575743,-482.05270000,-162.44770000,-1.49175700,-0.27442180
3.65575743,-481.69900000,-183.13240000,1.06114600,-0.31406860
3.73575743,-479.42290000,-204.27840000,3.42950300,-0.35325420
3.81575743,-475.48600000,-225.85510000,5.50565900,-0.39167080
3.89575743,-470.02640000,-247.81620000,7.18196300,-0.42898010
3.97575743,-463.15200000,-269.97720000,8.39689900,-0.46496680
4.05575743,-454.84740000,-292.07680000,9.18122500,-0.49941560
4.13575743,-445.05100000,-313.76110000,9.56569900,-0.53198820
4.21575743,-433.73210000,-334.59950000,9.61183500,-0.56225400
4.29575744,-420.84460000,-354.16150000,9.42728800,-0.58972070
4.37575744,-406.32690000,-372.09340000,9.08895100,-0.61383490
4.45575744,-390.33280000,-388.17970000,8.70447700,-0.63407360
4.53575744,-373.29290000,-402.29760000,8.33538300,-0.64994470
4.61575744,-355.71480000,-414.21620000,8.05856200,-0.66086370
4.69575744,-338.12130000,-423.73580000,7.88939400,-0.66627710
4.77575744,-320.98910000,-430.67170000,7.82787800,-0.66584650
4.85575744,-304.59520000,-434.90090000,7.85863600,-0.65947960
4.93575744,-289.04710000,-436.34660000,7.93553100,-0.64733020
5.01575745,-274.25260000,-435.08550000,8.04318300,-0.62982900
5.09575745,-259.95010000,-431.22540000,8.13545700,-0.60768330
5.17575745,-245.55550000,-424.96610000,8.21235200,-0.58181600
5.25575745,-230.60710000,-416.64610000,8.22773100,-0.55327270
5.33575745,-215.13590000,-406.68060000,8.21235200,-0.52319150
5.41575745,-199.44940000,-395.39250000,8.12007800,-0.49252580
5.49575745,-183.99360000,-383.05850000,7.95091000,-0.46210630
5.57575745,-169.26060000,-369.83260000,7.72022600,-0.43242500
5.65575745,-155.66560000,-355.82240000,7.41264700,-0.40372790
5.73575745,-143.47010000,-341.04330000,7.04355200,-0.37598430
5.81575746,-132.68950000,-325.46440000,6.62832200,-0.34897880
5.89575746,-123.07760000,-309.08580000,6.16695300,-0.32243480
5.97575746,-114.00410000,-291.84610000,5.69020700,-0.29586000
6.05575746,-104.79210000,-273.83730000,5.21345900,-0.26897760
6.13575746,-95.27251000,-255.50560000,4.76747000,-0.24224900
6.21575746,-85.44537000,-237.38930000,4.38299700,-0.21625860
6.29575746,-75.52596000,-220.04180000,4.06003900,-0.19183690
6.37575746,-65.76033000,-203.94010000,3.79859700,-0.16969120
6.45575746,-56.48683000,-189.40700000,3.62942900,-0.15043680
6.53575747,-47.93614000,-176.55020000,3.50639700,-0.13428890
6.61575747,-40.23130000,-165.20050000,3.44488200,-0.12109380
6.69575747,-33.38767000,-155.05040000,3.41412400,-0.11039000
6.77575747,-27.09768000,-145.42320000,3.41412400,-0.10110110
6.85575747,-21.13066000,-135.74990000,3.42950300,-0.09221210
6.93575747,-15.51735000,-125.92270000,3.50639700,-0.08344612
7.01575747,-10.36540000,-116.09560000,3.61405000,-0.07480315
7.09575747,-5.85937500,-106.52990000,3.79859700,-0.06659079
7.17575747,-2.21456700,-97.64087000,4.06003900,-0.05920891
7.25575748,0.41523130,-89.72071000,4.42913300,-0.05311885
7.33575748,1.96850400,-83.00012000,4.87512300,-0.04856668
7.41575748,2.50676700,-77.50983000,5.38262700,-0.04564469
7.49575748,2.16843000,-73.06533000,5.92089000,-0.04416831
7.57575748,1.29183100,-69.17445000,6.47453200,-0.04346088
7.65575748,0.18454720,-65.28358000,6.96665800,-0.04290723
7.73575748,-0.98425190,-61.26968000,7.38188900,-0.04219980
7.81575748,-2.16843000,-57.11737000,7.67408900,-0.04121555
7.89575748,-3.33722900,-52.98043000,7.82787800,-0.03995448
7.97575748,-4.53678600,-49.08956000,7.81250000,-0.03847810
8.05575749,-5.82861700,-45.67544000,7.62795300,-0.03694021
8.13575749,-7.27423700,-42.86110000,7.28961600,-0.03549459
8.21575749,-8.88902600,-40.72342000,6.79749000,-0.03426427
8.29575749,-10.67298000,-39.12401000,6.22846900,-0.03328002
8.37575749,-12.50307000,-37.75529000,5.62869100,-0.03244956
8.45575749,-14.31779000,-36.20201000,5.02891200,-0.03174213
8.53575749,-16.04023000,-34.27965000,4.52140800,-0.03118848
8.61575749,-17.62426000,-31.89591000,4.15231300,-0.03094242
8.69575749,-19.00837000,-29.03543000,3.95238700,-0.03112697
8.77575750,-20.14641000,-25.80585000,3.95238700,-0.03177289
8.85575750,-21.03838000,-22.31484000,4.15231300,-0.03300320
8.93575750,-21.66892000,-18.71617000,4.52140800,-0.03475640
9.01575750,-22.05339000,-15.13287000,5.02891200,-0.03694021
9.09575750,-22.23794000,-11.62648000,5.62869100,-0.03937008
9.17575750,-22.31484000,-8.13545700,6.22846900,-0.04183071
9.25575750,-22.36097000,-4.62906000,6.81286900,-0.04401452
9.33575750,-22.46863000,-1.07652500,7.28961600,-0.04570620
9.41575750,-22.73007000,2.50676700,7.64333200,-0.04678272
9.49575751,-23.20681000,6.07468000,7.82787800,-0.04715182
9.57575751,-23.92962000,9.59645700,7.82787800,-0.04678272
9.65575751,-24.89850000,13.02596000,7.64333200,-0.04570620
9.73575751,-26.06730000,16.31705000,7.28961600,-0.04398376
9.81575751,-27.35913000,19.40822000,6.81286900,-0.04176919
9.89575751,-28.68172000,22.25332000,6.22846900,-0.03915477
9.97575751,-29.89665000,24.83698000,5.62869100,-0.03629429
10.05575751,-30.89628000,27.11306000,5.02891200,-0.03331078
10.13575751,-31.57295000,28.98929000,4.52140800,-0.03029651
10.21575751,-31.83440000,30.35802000,4.15231300,-0.02740527
10.29575752,-31.64985000,31.18848000,3.95238700,-0.02476009
10.37575752,-31.00393000,31.41917000,3.95238700,-0.02239173
10.45575752,-29.92741000,31.06545000,4.15231300,-0.02036171
10.53575752,-28.48179000,30.14272000,4.52140800,-0.01863927
10.61575752,-26.71321000,28.72785000,5.02891200,-0.01716289
10.69575752,-24.71395000,26.88238000,5.62869100,-0.01587106
10.77575752,-22.54552000,24.69857000,6.22846900,-0.01464075
10.85575752,-20.22330000,22.25332000,6.79749000,-0.01337968
10.93575752,-17.79343000,19.53125000,7.28961600,-0.01196481
11.01575753,-15.34818000,16.59387000,7.62795300,-0.01039616
11.09575753,-12.93369000,13.42581000,7.81250000,-0.00870448
11.17575753,-10.62684000,10.05782000,7.82787800,-0.00695128
11.25575753,-8.45841400,6.50529000,7.67408900,-0.00516732
11.33575753,-6.44377400,2.81434500,7.38188900,-0.00344488
11.41575753,-4.58292300,-0.98425190,6.96665800,-0.00178396
11.49575753,-2.82972400,-4.82898600,6.47453200,-0.00021531
11.57575753,-1.12266200,-8.64296200,5.92089000,0.00129183
11.65575753,0.63053640,-12.38004000,5.38262700,0.00276821
11.73575753,2.50676700,-15.93258000,4.85974400,0.00427534
