Time,Channel A,Channel B,Channel C,Channel D
(ns),(mV),(mV),(mV),(V)

-15.71428583,-3.78321800,0.10765260,3.92162900,0.00759720
-15.63428582,-3.47564000,0.24606300,3.92162900,0.00698204
-15.55428582,-3.10654500,0.32295760,3.93700800,0.00621309
-15.47428582,-2.67593500,0.33833660,3.93700800,0.00535187
-15.39428582,-2.21456700,0.30757870,3.95238700,0.00442913
-15.31428582,-1.73782000,0.23068400,3.95238700,0.00347564
-15.23428582,-1.26107300,0.15378940,3.95238700,0.00255290
-15.15428582,-0.83046260,0.09227362,3.93700800,0.00166093
-15.07428582,-0.44598910,0.03075787,3.93700800,0.00092274
-14.99428582,-0.12303150,0.00000000,3.92162900,0.00027682
-14.91428581,0.10765260,0.00000000,3.90625000,-0.00024606
-14.83428581,0.26144190,0.03075787,3.89087100,-0.00061516
-14.75428581,0.33833660,0.09227362,3.84473400,-0.00086122
-14.67428581,0.33833660,0.15378940,3.78321800,-0.00101501
-14.59428581,0.30757870,0.23068400,3.72170300,-0.00107653
-14.51428581,0.23068400,0.30757870,3.64480800,-0.00107653
-14.43428581,0.15378940,0.33833660,3.59867100,-0.00101501
-14.35428581,0.09227362,0.33833660,3.59867100,-0.00086122
-14.27428581,0.03075787,0.26144190,3.66018700,-0.00061516
-14.19428580,0.00000000,0.10765260,3.81397600,-0.00024606
-14.11428580,0.00000000,-0.12303150,4.06003900,0.00027682
-14.03428580,0.03075787,-0.44598910,4.41375400,0.00092274
-13.95428580,0.09227362,-0.83046260,4.85974400,0.00166093
-13.87428580,0.15378940,-1.26107300,5.38262700,0.00255290
-13.79428580,0.23068400,-1.73782000,5.92089000,0.00347564
-13.71428580,0.30757870,-2.21456700,6.47453200,0.00442913
-13.63428580,0.33833660,-2.67593500,6.96665800,0.00535187
-13.55428580,0.33833660,-3.10654500,7.38188900,0.00621309
-13.47428580,0.26144190,-3.49101900,7.67408900,0.00698204
-13.39428579,0.10765260,-3.79859700,7.82787800,0.00759720
-13.31428579,-0.12303150,-4.02928100,7.82787800,0.00805856
-13.23428579,-0.44598910,-4.18307100,7.67408900,0.00836614
-13.15428579,-0.83046260,-4.27534400,7.38188900,0.00855069
-13.07428579,-1.26107300,-4.29072300,6.96665800,0.00858145
-12.99428579,-1.73782000,-4.25996500,6.47453200,0.00851993
-12.91428579,-2.21456700,-4.18307100,5.92089000,0.00836614
-12.83428579,-2.67593500,-4.10617600,5.38262700,0.00821235
-12.75428579,-3.09116600,-4.02928100,4.85974400,0.00805856
-12.67428578,-3.46026100,-3.96776600,4.41375400,0.00793553
-12.59428578,-3.78321800,-3.93700800,4.06003900,0.00784326
-12.51428578,-4.04466000,-3.92162900,3.81397600,0.00784326
-12.43428578,-4.27534400,-3.92162900,3.66018700,0.00793553
-12.35428578,-4.45989200,-3.93700800,3.59867100,0.00805856
-12.27428578,-4.61368100,-3.93700800,3.59867100,0.00821235
-12.19428578,-4.73671200,-3.95238700,3.64480800,0.00836614
-12.11428578,-4.79822800,-3.95238700,3.72170300,0.00851993
-12.03428578,-4.79822800,-3.95238700,3.78321800,0.00858145
-11.95428577,-4.70595500,-3.93700800,3.84473400,0.00855069
-11.87428577,-4.50602900,-3.92162900,3.89087100,0.00839690
-11.79428577,-4.15231300,-3.92162900,3.90625000,0.00805856
-11.71428577,-3.64480800,-3.92162900,3.92162900,0.00756644
-11.63428577,-2.98351400,-3.92162900,3.93700800,0.00688976
-11.55428577,-2.16843000,-3.93700800,3.93700800,0.00602854
-11.47428577,-1.24569400,-3.95238700,3.95238700,0.00501353
-11.39428577,-0.24606300,-3.95238700,3.95238700,0.00396777
-11.31428577,0.78432570,-3.95238700,3.95238700,0.00286048
-11.23428577,1.75319900,-3.95238700,3.93700800,0.00184547
-11.15428576,2.61441900,-3.93700800,3.93700800,0.00101501
-11.07428576,3.30647100,-3.92162900,3.92162900,0.00039985
-10.99428576,3.76783900,-3.92162900,3.92162900,0.00006152
-10.91428576,4.01390200,-3.92162900,3.93700800,0.00003076
-10.83428576,3.99852300,-3.92162900,3.96776600,0.00027682
-10.75428576,3.78321800,-3.93700800,4.02928100,0.00079970
-10.67428576,3.36798700,-3.95238700,4.10617600,0.00153789
-10.59428576,2.82972400,-3.95238700,4.18307100,0.00239911
-10.51428576,2.21456700,-3.95238700,4.25996500,0.00335261
-10.43428575,1.59940900,-3.95238700,4.29072300,0.00433686
-10.35428575,1.01501000,-3.93700800,4.27534400,0.00535187
-10.27428575,0.53826270,-3.92162900,4.18307100,0.00633612
-10.19428575,0.15378940,-3.92162900,4.02928100,0.00735113
-10.11428575,-0.12303150,-3.92162900,3.79859700,0.00833538
-10.03428575,-0.27682080,-3.92162900,3.49101900,0.00938115
-9.95428575,-0.35371550,-3.93700800,3.10654500,0.01039616
-9.87428575,-0.35371550,-3.95238700,2.67593500,0.01144193
-9.79428575,-0.30757870,-3.95238700,2.21456700,0.01245694
-9.71428574,-0.23068400,-3.95238700,1.73782000,0.01341043
-9.63428574,-0.16916830,-3.95238700,1.27645200,0.01427165
-9.55428574,-0.09227362,-3.93700800,0.83046260,0.01494833
-9.47428574,-0.04613681,-3.92162900,0.46136810,0.01544045
-9.39428574,-0.01537894,-3.92162900,0.13841040,0.01565576
-9.31428574,0.00000000,-3.92162900,-0.12303150,0.01562500
-9.23428574,0.01537894,-3.92162900,-0.30757870,0.01531742
-9.15428574,0.00000000,-3.93700800,-0.43061020,0.01473302
-9.07428574,0.00000000,-3.95238700,-0.50750490,0.01393332
-8.99428574,0.00000000,-3.95238700,-0.53826270,0.01294907
-8.91428573,0.00000000,-3.95238700,-0.53826270,0.01184178
-8.83428573,0.00000000,-3.93700800,-0.50750490,0.01073450
-8.75428573,0.00000000,-3.93700800,-0.43061020,0.00971949
-8.67428573,-0.01537894,-3.92162900,-0.30757870,0.00879675
-8.59428573,0.00000000,-3.92162900,-0.12303150,0.00812008
-8.51428573,0.01537894,-3.93700800,0.13841040,0.00762795
-8.43428573,0.04613681,-3.96776600,0.46136810,0.00741265
-8.35428573,0.09227362,-4.02928100,0.83046260,0.00738189
-8.27428573,0.16916830,-4.10617600,1.27645200,0.00753568
-8.19428572,0.23068400,-4.18307100,1.73782000,0.00778174
-8.11428572,0.30757870,-4.25996500,2.21456700,0.00802781
-8.03428572,0.35371550,-4.29072300,2.67593500,0.00827387
-7.95428572,0.33833660,-4.27534400,3.10654500,0.00836614
-7.87428572,0.27682080,-4.19845000,3.49101900,0.00830463
-7.79428572,0.10765260,-4.02928100,3.79859700,0.00805856
-7.71428572,-0.13841040,-3.78321800,4.02928100,0.00756644
-7.63428572,-0.49212600,-3.44488200,4.18307100,0.00688976
-7.55428572,-0.92273620,-3.01427100,4.27534400,0.00602854
-7.47428572,-1.43024100,-2.50676700,4.29072300,0.00504429
-7.39428571,-1.96850400,-1.98388300,4.25996500,0.00396777
-7.31428571,-2.52214600,-1.43024100,4.18307100,0.00286048
-7.23428571,-3.01427100,-0.92273620,4.10617600,0.00184547
-7.15428571,-3.44488200,-0.49212600,4.02928100,0.00098425
-7.07428571,-3.73708200,-0.18454720,3.96776600,0.00036909
-6.99428571,-3.90625000,-0.01537894,3.92162900,0.00003076
-6.91428571,-3.90625000,-0.01537894,3.92162900,0.00003076
-6.83428571,-3.73708200,-0.18454720,3.96776600,0.00036909
-6.75428571,-3.44488200,-0.49212600,4.02928100,0.00098425
-6.67428570,-3.01427100,-0.92273620,4.10617600,0.00184547
-6.59428570,-2.52214600,-1.43024100,4.18307100,0.00286048
-6.51428570,-1.96850400,-1.98388300,4.25996500,0.00396777
-6.43428570,-1.43024100,-2.50676700,4.29072300,0.00501353
-6.35428570,-0.92273620,-3.01427100,4.27534400,0.00602854
-6.27428570,-0.49212600,-3.44488200,4.19845000,0.00688976
-6.19428570,-0.13841040,-3.78321800,4.02928100,0.00756644
-6.11428570,0.10765260,-4.02928100,3.78321800,0.00805856
-6.03428570,0.27682080,-4.19845000,3.44488200,0.00839690
-5.95428569,0.33833660,-4.27534400,3.01427100,0.00855069
-5.87428569,0.35371550,-4.29072300,2.50676700,0.00858145
-5.79428569,0.30757870,-4.25996500,1.98388300,0.00851993
-5.71428569,0.23068400,-4.18307100,1.43024100,0.00836614
-5.63428569,0.16916830,-4.10617600,0.92273620,0.00821235
-5.55428569,0.09227362,-4.02928100,0.49212600,0.00805856
-5.47428569,0.04613681,-3.96776600,0.18454720,0.00793553
-5.39428569,0.01537894,-3.92162900,0.01537894,0.00787402
-5.31428569,0.00000000,-3.92162900,0.01537894,0.00784326
-5.23428569,-0.01537894,-3.96776600,0.18454720,0.00784326
-5.15428568,0.00000000,-4.02928100,0.49212600,0.00787402
-5.07428568,0.00000000,-4.10617600,0.92273620,0.00787402
-4.99428568,0.00000000,-4.18307100,1.43024100,0.00790477
-4.91428568,0.00000000,-4.25996500,1.98388300,0.00790477
-4.83428568,0.00000000,-4.29072300,2.50676700,0.00790477
-4.75428568,0.00000000,-4.27534400,3.01427100,0.00787402
-4.67428568,-0.01537894,-4.19845000,3.44488200,0.00784326
-4.59428568,0.00000000,-4.02928100,3.78321800,0.00784326
-4.51428568,0.01537894,-3.78321800,4.02928100,0.00784326
-4.43428567,0.04613681,-3.44488200,4.19845000,0.00784326
-4.35428567,0.09227362,-3.01427100,4.27534400,0.00787402
-4.27428567,0.16916830,-2.50676700,4.29072300,0.00790477
-4.19428567,0.23068400,-1.98388300,4.25996500,0.00790477
-4.11428567,0.30757870,-1.43024100,4.18307100,0.00790477
-4.03428567,0.35371550,-0.92273620,4.10617600,0.00790477
-3.95428567,0.33833660,-0.49212600,4.02928100,0.00787402
-3.87428567,0.27682080,-0.18454720,3.96776600,0.00784326
-3.79428567,0.10765260,-0.01537894,3.93700800,0.00784326
-3.71428566,-0.13841040,-0.01537894,3.92162900,0.00784326
-3.63428566,-0.49212600,-0.18454720,3.92162900,0.00784326
-3.55428566,-0.92273620,-0.49212600,3.93700800,0.00787402
-3.47428566,-1.43024100,-0.92273620,3.93700800,0.00790477
-3.39428566,-1.96850400,-1.43024100,3.95238700,0.00790477
-3.31428566,-2.52214600,-1.98388300,3.95238700,0.00790477
-3.23428566,-3.01427100,-2.50676700,3.93700800,0.00790477
-3.15428566,-3.44488200,-3.01427100,3.93700800,0.00787402
-3.07428566,-3.73708200,-3.44488200,3.92162900,0.00784326
-2.99428566,-3.90625000,-3.78321800,3.92162900,0.00784326
-2.91428565,-3.90625000,-4.02928100,3.93700800,0.00784326
-2.83428565,-3.73708200,-4.19845000,3.96776600,0.00784326
-2.75428565,-3.44488200,-4.27534400,4.02928100,0.00787402
-2.67428565,-3.01427100,-4.29072300,4.10617600,0.00790477
-2.59428565,-2.52214600,-4.25996500,4.18307100,0.00790477
-2.51428565,-1.96850400,-4.18307100,4.25996500,0.00790477
-2.43428565,-1.43024100,-4.10617600,4.29072300,0.00790477
-2.35428565,-0.92273620,-4.04466000,4.27534400,0.00787402
-2.27428565,-0.49212600,-3.98314500,4.19845000,0.00784326
-2.19428564,-0.13841040,-3.93700800,4.02928100,0.00784326
-2.11428564,0.10765260,-3.90625000,3.78321800,0.00784326
-2.03428564,0.27682080,-3.87549200,3.44488200,0.00784326
-1.95428564,0.33833660,-3.82935500,3.01427100,0.00787402
-1.87428564,0.35371550,-3.78321800,2.50676700,0.00790477
-1.79428564,0.30757870,-3.72170300,1.98388300,0.00790477
-1.71428564,0.23068400,-3.64480800,1.43024100,0.00790477
-1.63428564,0.16916830,-3.59867100,0.95349410,0.00790477
-1.55428564,0.09227362,-3.59867100,0.58439960,0.00787402
-1.47428563,0.04613681,-3.66018700,0.32295760,0.00784326
-1.39428563,0.01537894,-3.81397600,0.10765260,0.00784326
-1.31428563,0.00000000,-4.06003900,-0.12303150,0.00784326
-1.23428563,-0.01537894,-4.41375400,-0.41523130,0.00784326
-1.15428563,0.00000000,-4.85974400,-0.83046260,0.00787402
-1.07428563,0.00000000,-5.38262700,-1.35334600,0.00790477
-0.99428563,0.00000000,-5.92089000,-1.87623000,0.00790477
-0.91428563,0.00000000,-6.47453200,-2.27608300,0.00790477
-0.83428563,0.00000000,-6.96665800,-2.18380900,0.00790477
-0.75428563,0.00000000,-7.36651000,-1.30720900,0.00787402
-0.67428562,-0.01537894,-7.65871000,0.36909450,0.00784326
-0.59428562,0.00000000,-7.81250000,2.64517700,0.00784326
-0.51428562,0.01537894,-7.84325700,5.24421700,0.00784326
-0.43428562,0.04613681,-7.75098400,7.82787800,0.00784326
-0.35428562,0.09227362,-7.56643700,10.21161000,0.00787402
-0.27428562,0.16916830,-7.28961600,12.31853000,0.00790477
-0.19428562,0.23068400,-6.95127900,14.37930000,0.00790477
-0.11428562,0.30757870,-6.53604800,16.93221000,0.00790477
-0.03428562,0.32295760,-6.07468000,20.80770000,0.00790477
0.04571439,0.26144190,-5.53641700,27.00541000,0.00787402
0.12571439,0.13841040,-4.95201700,36.54035000,0.00784326
0.20571439,0.03075787,-4.27534400,50.24298000,0.00784326
0.28571439,-0.01537894,-3.53715500,68.63619000,0.00784326
0.36571439,0.07689468,-2.72207200,91.76611000,0.00784326
0.44571439,0.30757870,-1.84547200,119.15600000,0.00787402
0.52571439,0.67667320,-0.89197830,149.69860000,0.00790477
0.60571439,1.10728300,0.06151574,181.77900000,0.00790477
0.68571439,1.43024100,1.01501000,213.39810000,0.00790477
0.76571439,1.35334600,1.90698800,242.34130000,0.00787402
0.84571440,0.56902060,2.69131400,266.40930000,0.00784326
0.92571440,-0.89197830,3.30647100,283.72600000,0.00781250
1.00571440,-2.84510300,3.76783900,292.90720000,0.00781250
1.08571440,-5.02891200,4.02928100,293.19940000,0.00787402
1.16571440,-7.15120500,4.12155500,284.64870000,0.00802781
1.24571440,-9.01205700,4.06003900,267.97800000,0.00824311
1.32571440,-10.58071000,3.84473400,244.60200000,0.00855069
1.40571440,-12.08784000,3.53715500,216.39700000,0.00885827
1.48571440,-14.02559000,3.12192400,185.45460000,0.00913509
1.56571441,-17.39358000,2.59904000,153.91240000,0.00919661
1.64571441,-23.17606000,1.90698800,123.69280000,0.00901206
1.72571441,-31.92667000,1.13804100,96.34903000,0.00861220
1.80571441,-43.86073000,0.35371550,72.86540000,0.00808932
1.88571441,-58.85519000,-0.32295760,53.74938000,0.00762795
1.96571441,-76.51021000,-0.83046260,38.93946000,0.00738189
2.04571441,-96.21062000,-1.12266200,27.95891000,0.00741265
2.12571441,-117.24900000,-1.23031500,20.02337000,0.00768947
2.20571441,-139.01020000,-1.26107300,14.24089000,0.00805856
2.28571442,-161.09440000,-1.39948300,9.71948700,0.00818159
2.36571442,-183.57840000,-2.10691400,5.72096400,0.00732037
2.44571442,-206.67750000,-3.76783900,1.83009300,0.00489050
2.52571442,-230.37650000,-6.38225800,-2.10691400,0.00079970
2.60571442,-254.53680000,-9.82714000,-5.99778500,-0.00470596
2.68571442,-278.94310000,-13.79491000,-9.59645700,-0.01116511
2.76571442,-303.27260000,-17.96260000,-12.59535000,-0.01799336
2.84571442,-327.11000000,-22.05339000,-14.74840000,-0.02482160
2.92571442,-350.02460000,-25.95964000,-15.88644000,-0.03140379
3.00571442,-371.58580000,-29.85052000,-16.07099000,-0.03804749
3.08571443,-391.48620000,-34.17200000,-15.59424000,-0.04546014
3.16571443,-409.67950000,-39.90834000,-14.87143000,-0.05517963
3.24571443,-426.19650000,-48.10531000,-14.02559000,-0.06877460
3.32571443,-440.85260000,-59.33194000,-13.14899000,-0.08732160
3.40571443,-453.46330000,-73.86503000,-12.24163000,-0.11140500
3.48571443,-463.78260000,-91.64308000,-11.25738000,-0.14099410
3.56571443,-471.62580000,-112.26620000,-10.13472000,-0.17556590
3.64571443,-476.82390000,-135.08860000,-8.79675100,-0.21413630
3.72571443,-479.31530000,-159.32580000,-7.22810000,-0.25538260
3.80571444,-479.11540000,-184.22430000,-5.44414400,-0.29785930
3.88571444,-476.40870000,-209.16890000,-3.53715500,-0.34024360
3.96571444,-471.53360000,-233.94440000,-1.64554600,-0.38161290
4.04571444,-464.95140000,-258.50450000,0.18454720,-0.42135210
4.12571444,-457.03120000,-282.66490000,1.83009300,-0.45887670
4.20571444,-448.06530000,-306.22540000,3.29109200,-0.49363310
4.28571444,-438.19200000,-328.98620000,4.49065000,-0.52540600
4.36571444,-427.50370000,-350.70130000,5.45952300,-0.55391850
4.44571444,-415.93870000,-371.12450000,6.21309000,-0.57907850
4.52571445,-403.42030000,-389.93290000,6.75135300,-0.60076280
4.60571445,-389.84060000,-406.86510000,7.15120500,-0.61878690
4.68571445,-374.98460000,-421.65970000,7.41264700,-0.63296630
4.76571445,-358.83670000,-434.20890000,7.61257400,-0.64311640
4.84571445,-341.75070000,-444.46660000,7.75098400,-0.64905270
4.92571445,-324.18800000,-452.26370000,7.84325700,-0.65043680
5.00571445,-306.68670000,-457.40030000,7.85863600,-0.64693030
5.08571445,-289.70840000,-459.72250000,7.79712100,-0.63831820
5.16571445,-273.60660000,-459.12270000,7.62795300,-0.62447710
5.24571445,-258.51990000,-455.57020000,7.35113100,-0.60556100
5.32571446,-244.40210000,-449.15720000,6.95127900,-0.58203130
5.40571446,-230.96090000,-440.09900000,6.47453200,-0.55453370
5.48571446,-217.58120000,-428.65710000,5.92089000,-0.52389880
5.56571446,-203.74010000,-415.29280000,5.36724900,-0.49117250
5.64571446,-189.37620000,-400.57510000,4.85974400,-0.45758490
5.72571446,-174.70470000,-384.99630000,4.39837600,-0.42421260
5.80571446,-160.11010000,-368.95610000,4.06003900,-0.39200910
5.88571446,-146.02300000,-352.74660000,3.81397600,-0.36158960
5.96571446,-132.87400000,-336.52190000,3.70632400,-0.33323080
6.04571447,-120.89380000,-320.29710000,3.69094500,-0.30693280
6.12571447,-110.15930000,-303.96470000,3.76783900,-0.28241880
6.20571447,-100.53210000,-287.41700000,3.89087100,-0.25919660
6.28571447,-91.45853000,-270.37710000,4.01390200,-0.23652810
6.36571447,-82.40034000,-252.75280000,4.12155500,-0.21398250
6.44571447,-73.28062000,-234.86710000,4.18307100,-0.19174460
6.52571447,-64.16093000,-217.16600000,4.15231300,-0.17030640
6.60571447,-55.27190000,-200.23370000,4.01390200,-0.15037520
6.68571447,-46.87500000,-184.53190000,3.79859700,-0.13268950
6.76571448,-39.27780000,-170.42940000,3.49101900,-0.11780270
6.84571448,-32.63410000,-158.08010000,3.10654500,-0.10599160
6.92571448,-27.02079000,-147.37630000,2.67593500,-0.09710260
7.00571448,-22.37635000,-137.99520000,2.21456700,-0.09067421
7.08571448,-18.34707000,-129.24460000,1.73782000,-0.08559916
7.16571448,-14.60999000,-120.52470000,1.26107300,-0.08083169
7.24571448,-11.11897000,-111.69720000,0.83046260,-0.07587968
7.32571448,-7.90477300,-102.85430000,0.44598910,-0.07068159
7.40571448,-5.12118600,-94.28825000,0.12303150,-0.06536048
7.48571448,-2.89124000,-86.33734000,-0.10765260,-0.06022392
7.56571449,-1.36872500,-79.35531000,-0.26144190,-0.05564100
7.64571449,-0.63053640,-73.52669000,-0.33833660,-0.05185778
7.72571449,-0.64591530,-68.89763000,-0.33833660,-0.04905881
7.80571449,-1.32258800,-65.29897000,-0.30757870,-0.04718258
7.88571449,-2.41449300,-62.20779000,-0.23068400,-0.04582923
7.96571449,-3.64480800,-59.13201000,-0.15378940,-0.04450664
8.04571449,-4.90588000,-55.85630000,-0.09227362,-0.04312254
8.12571449,-6.13619500,-52.39603000,-0.03075787,-0.04161540
8.20571449,-7.28961600,-48.82812000,0.00000000,-0.04001600
8.28571450,-8.39689900,-45.36786000,0.00000000,-0.03844734
8.36571450,-9.47342500,-42.19980000,-0.03075787,-0.03703248
8.44571450,-10.58071000,-39.49311000,-0.09227362,-0.03583292
8.52571450,-11.73413000,-37.29392000,-0.15378940,-0.03487943
8.60571450,-12.94906000,-35.54072000,-0.23068400,-0.03423351
8.68571450,-14.17938000,-33.97207000,-0.30757870,-0.03367987
8.76571450,-15.39431000,-32.24963000,-0.33833660,-0.03312623
8.84571450,-16.60925000,-30.20423000,-0.33833660,-0.03254183
8.92571450,-17.82419000,-27.78974000,-0.26144190,-0.03201895
9.00571451,-19.02374000,-25.02153000,-0.10765260,-0.03155758
9.08571451,-20.19254000,-21.97650000,0.12303150,-0.03125000
9.16571451,-21.29983000,-18.77768000,0.44598910,-0.03112697
9.24571451,-22.34559000,-15.50197000,0.83046260,-0.03125000
9.32571451,-23.29909000,-12.28777000,1.26107300,-0.03152682
9.40571451,-24.14493000,-9.16584600,1.73782000,-0.03195743
9.48571451,-24.89850000,-6.10543700,2.21456700,-0.03235728
9.56571451,-25.55979000,-3.01427100,2.67593500,-0.03260335
9.64571451,-26.14419000,0.09227362,3.10654500,-0.03263411
9.72571451,-26.68245000,3.21419800,3.49101900,-0.03235728
9.80571452,-27.20534000,6.32074300,3.79859700,-0.03177289
9.88571452,-27.71284000,9.35039300,4.01390200,-0.03091166
9.96571452,-28.25111000,12.27239000,4.15231300,-0.02974286
10.04571452,-28.77399000,15.05598000,4.18307100,-0.02835876
10.12571452,-29.28149000,17.62426000,4.12155500,-0.02682087
10.20571452,-29.69673000,19.97724000,4.01390200,-0.02512918
10.28571452,-29.95817000,22.08415000,3.89087100,-0.02337598
10.36571452,-30.00430000,23.92962000,3.76783900,-0.02153051
10.44571452,-29.72748000,25.45214000,3.69094500,-0.01971580
10.52571453,-29.09695000,26.59018000,3.70632400,-0.01796260
10.60571453,-28.09732000,27.28223000,3.81397600,-0.01639395
10.68571453,-26.72859000,27.51292000,4.06003900,-0.01504060
10.76571453,-25.02153000,27.28223000,4.39837600,-0.01396407
10.84571453,-23.03765000,26.62094000,4.85974400,-0.01313361
10.92571453,-20.80770000,25.54441000,5.36724900,-0.01251845
11.00571453,-18.42397000,24.12955000,5.92089000,-0.01205709
11.08571453,-15.90182000,22.42249000,6.47453200,-0.01165723
11.16571453,-13.27202000,20.46936000,6.96665800,-0.01113435
11.24571453,-10.58071000,18.27018000,7.38188900,-0.01045768
