Time,Channel A,Channel B,Channel C,Channel D
(ns),(mV),(mV),(mV),(V)

-15.27999983,0.01537894,-4.07541800,0.01537894,0.00024606
-15.19999982,0.04613681,-4.47527100,0.18454720,0.00089198
-15.11999982,0.09227362,-4.96739600,0.49212600,0.00166093
-15.03999982,0.16916830,-5.53641700,0.92273620,0.00252215
-14.95999982,0.23068400,-6.16695300,1.43024100,0.00347564
-14.87999982,0.30757870,-6.78211100,1.98388300,0.00442913
-14.79999982,0.33833660,-7.32037400,2.50676700,0.00535187
-14.71999982,0.33833660,-7.72022600,3.01427100,0.00621309
-14.63999982,0.26144190,-7.93553100,3.44488200,0.00695128
-14.55999982,0.10765260,-7.93553100,3.78321800,0.00756644
-14.47999981,-0.12303150,-7.68946800,4.02928100,0.00808932
-14.39999981,-0.44598910,-7.18196300,4.19845000,0.00845842
-14.31999981,-0.83046260,-6.45915300,4.27534400,0.00873524
-14.23999981,-1.26107300,-5.53641700,4.29072300,0.00888903
-14.15999981,-1.73782000,-4.49065000,4.25996500,0.00898130
-14.07999981,-2.21456700,-3.41412400,4.18307100,0.00898130
-13.99999981,-2.67593500,-2.35297700,4.10617600,0.00891978
-13.91999981,-3.10654500,-1.41486200,4.02928100,0.00873524
-13.83999981,-3.47564000,-0.67667320,3.96776600,0.00848917
-13.75999980,-3.78321800,-0.15378940,3.93700800,0.00808932
-13.67999980,-4.04466000,0.09227362,3.92162900,0.00756644
-13.59999980,-4.22920700,0.09227362,3.92162900,0.00685901
-13.51999980,-4.36761800,-0.15378940,3.93700800,0.00599779
-13.43999980,-4.44451300,-0.58439960,3.93700800,0.00501353
-13.35999980,-4.49065000,-1.12266200,3.95238700,0.00396777
-13.27999980,-4.49065000,-1.73782000,3.95238700,0.00286048
-13.19999980,-4.44451300,-2.35297700,3.95238700,0.00184547
-13.11999980,-4.36761800,-2.90661900,3.93700800,0.00098425
-13.03999980,-4.22920700,-3.38336600,3.92162900,0.00036909
-12.95999979,-4.04466000,-3.76783900,3.92162900,0.00003076
-12.87999979,-3.78321800,-4.06003900,3.92162900,0.00003076
-12.79999979,-3.47564000,-4.24458600,3.92162900,0.00036909
-12.71999979,-3.10654500,-4.38299700,3.93700800,0.00098425
-12.63999979,-2.67593500,-4.45989200,3.95238700,0.00184547
-12.55999979,-2.21456700,-4.49065000,3.95238700,0.00286048
-12.47999979,-1.73782000,-4.49065000,3.95238700,0.00396777
-12.39999979,-1.26107300,-4.44451300,3.95238700,0.00501353
-12.31999979,-0.83046260,-4.36761800,3.93700800,0.00602854
-12.23999978,-0.44598910,-4.22920700,3.92162900,0.00688976
-12.15999978,-0.12303150,-4.02928100,3.92162900,0.00756644
-12.07999978,0.10765260,-3.79859700,3.92162900,0.00805856
-11.99999978,0.26144190,-3.52177600,3.92162900,0.00839690
-11.91999978,0.33833660,-3.19881900,3.93700800,0.00855069
-11.83999978,0.33833660,-2.82972400,3.95238700,0.00858145
-11.75999978,0.30757870,-2.44525100,3.95238700,0.00851993
-11.67999978,0.23068400,-2.04539800,3.95238700,0.00836614
-11.59999978,0.16916830,-1.61478800,3.95238700,0.00821235
-11.51999977,0.09227362,-1.18417800,3.93700800,0.00805856
-11.43999977,0.04613681,-0.72281000,3.92162900,0.00793553
-11.35999977,0.01537894,-0.24606300,3.92162900,0.00787402
-11.27999977,0.00000000,0.26144190,3.92162900,0.00784326
-11.19999977,-0.01537894,0.78432570,3.92162900,0.00784326
-11.11999977,0.00000000,1.35334600,3.93700800,0.00787402
-11.03999977,0.00000000,1.93774600,3.95238700,0.00787402
-10.95999977,0.00000000,2.52214600,3.95238700,0.00790477
-10.87999977,0.00000000,3.06040800,3.95238700,0.00790477
-10.79999977,0.00000000,3.52177600,3.95238700,0.00787402
-10.71999976,0.00000000,3.87549200,3.93700800,0.00787402
-10.63999976,0.01537894,4.04466000,3.92162900,0.00784326
-10.55999976,0.00000000,4.01390200,3.92162900,0.00784326
-10.47999976,-0.01537894,3.76783900,3.92162900,0.00787402
-10.39999976,-0.04613681,3.29109200,3.92162900,0.00793553
-10.31999976,-0.09227362,2.59904000,3.93700800,0.00805856
-10.23999976,-0.16916830,1.75319900,3.95238700,0.00821235
-10.15999976,-0.23068400,0.78432570,3.95238700,0.00836614
-10.07999976,-0.30757870,-0.24606300,3.95238700,0.00851993
-9.99999975,-0.35371550,-1.24569400,3.95238700,0.00858145
-9.91999975,-0.33833660,-2.18380900,3.93700800,0.00855069
-9.83999975,-0.27682080,-2.99889300,3.93700800,0.00836614
-9.75999975,-0.10765260,-3.66018700,3.92162900,0.00805856
-9.67999975,0.13841040,-4.13693400,3.90625000,0.00759720
-9.59999975,0.49212600,-4.45989200,3.89087100,0.00698204
-9.51999975,0.92273620,-4.61368100,3.84473400,0.00621309
-9.43999975,1.43024100,-4.62906000,3.78321800,0.00535187
-9.35999975,1.96850400,-4.56754400,3.72170300,0.00442913
-9.27999974,2.52214600,-4.42913300,3.64480800,0.00347564
-9.19999974,3.01427100,-4.27534400,3.59867100,0.00252215
-9.11999974,3.44488200,-4.12155500,3.59867100,0.00166093
-9.03999974,3.73708200,-4.01390200,3.66018700,0.00089198
-8.95999974,3.90625000,-3.93700800,3.81397600,0.00024606
-8.87999974,3.90625000,-3.90625000,4.06003900,-0.00021531
-8.79999974,3.73708200,-3.90625000,4.41375400,-0.00052288
-8.71999974,3.44488200,-3.92162900,4.85974400,-0.00067667
-8.63999974,3.01427100,-3.93700800,5.38262700,-0.00067667
-8.55999974,2.52214600,-3.95238700,5.92089000,-0.00061516
-8.47999973,1.96850400,-3.95238700,6.47453200,-0.00046137
-8.39999973,1.43024100,-3.93700800,6.96665800,-0.00030758
-8.31999973,0.92273620,-3.93700800,7.36651000,-0.00018455
-8.23999973,0.49212600,-3.92162900,7.65871000,-0.00006152
-8.15999973,0.13841040,-3.92162900,7.81250000,0.00000000
-8.07999973,-0.10765260,-3.93700800,7.82787800,0.00000000
-7.99999973,-0.27682080,-3.96776600,7.72022600,-0.00006152
-7.91999973,-0.33833660,-4.02928100,7.47416300,-0.00018455
-7.83999973,-0.35371550,-4.10617600,7.13582600,-0.00030758
-7.75999972,-0.30757870,-4.18307100,6.70521600,-0.00046137
-7.67999972,-0.23068400,-4.25996500,6.22846900,-0.00061516
-7.59999972,-0.16916830,-4.29072300,5.72096400,-0.00067667
-7.51999972,-0.09227362,-4.27534400,5.19808000,-0.00067667
-7.43999972,-0.04613681,-4.18307100,4.67519700,-0.00052288
-7.35999972,-0.01537894,-4.02928100,4.16769200,-0.00021531
-7.27999972,0.00000000,-3.79859700,3.67556500,0.00024606
-7.19999972,0.01537894,-3.49101900,3.21419800,0.00089198
-7.11999972,0.00000000,-3.10654500,2.76820900,0.00166093
-7.03999972,0.00000000,-2.67593500,2.33759800,0.00252215
-6.95999971,0.00000000,-2.21456700,1.90698800,0.00347564
-6.87999971,0.00000000,-1.73782000,1.50713600,0.00442913
-6.79999971,0.00000000,-1.27645200,1.10728300,0.00535187
-6.71999971,0.00000000,-0.83046260,0.73818890,0.00621309
-6.63999971,-0.01537894,-0.46136810,0.41523130,0.00698204
-6.55999971,0.00000000,-0.13841040,0.12303150,0.00759720
-6.47999971,0.01537894,0.12303150,-0.10765260,0.00805856
-6.39999971,0.04613681,0.30757870,-0.29219980,0.00836614
-6.31999971,0.09227362,0.43061020,-0.43061020,0.00855069
-6.23999970,0.16916830,0.50750490,-0.50750490,0.00858145
-6.15999970,0.23068400,0.53826270,-0.53826270,0.00851993
-6.07999970,0.30757870,0.53826270,-0.53826270,0.00836614
-5.99999970,0.33833660,0.50750490,-0.50750490,0.00821235
-5.91999970,0.33833660,0.43061020,-0.43061020,0.00805856
-5.83999970,0.26144190,0.30757870,-0.30757870,0.00793553
-5.75999970,0.10765260,0.12303150,-0.12303150,0.00787402
-5.67999970,-0.12303150,-0.13841040,0.13841040,0.00784326
-5.59999970,-0.44598910,-0.46136810,0.46136810,0.00784326
-5.51999969,-0.83046260,-0.83046260,0.83046260,0.00787402
-5.43999969,-1.26107300,-1.27645200,1.27645200,0.00787402
-5.35999969,-1.73782000,-1.73782000,1.73782000,0.00790477
-5.27999969,-2.21456700,-2.21456700,2.21456700,0.00790477
-5.19999969,-2.67593500,-2.67593500,2.67593500,0.00790477
-5.11999969,-3.10654500,-3.10654500,3.10654500,0.00787402
-5.03999969,-3.47564000,-3.49101900,3.49101900,0.00784326
-4.95999969,-3.78321800,-3.79859700,3.79859700,0.00784326
-4.87999969,-4.04466000,-4.02928100,4.02928100,0.00784326
-4.79999969,-4.22920700,-4.18307100,4.18307100,0.00784326
-4.71999968,-4.36761800,-4.27534400,4.27534400,0.00787402
-4.63999968,-4.44451300,-4.29072300,4.29072300,0.00790477
-4.55999968,-4.49065000,-4.25996500,4.25996500,0.00790477
-4.47999968,-4.49065000,-4.18307100,4.18307100,0.00790477
-4.39999968,-4.44451300,-4.10617600,4.10617600,0.00790477
-4.31999968,-4.36761800,-4.02928100,4.02928100,0.00787402
-4.23999968,-4.22920700,-3.96776600,3.96776600,0.00784326
-4.15999968,-4.04466000,-3.92162900,3.93700800,0.00784326
-4.07999968,-3.78321800,-3.92162900,3.92162900,0.00784326
-3.99999967,-3.47564000,-3.96776600,3.92162900,0.00784326
-3.91999967,-3.10654500,-4.02928100,3.93700800,0.00787402
-3.83999967,-2.67593500,-4.10617600,3.93700800,0.00790477
-3.75999967,-2.21456700,-4.18307100,3.95238700,0.00790477
-3.67999967,-1.73782000,-4.25996500,3.95238700,0.00790477
-3.59999967,-1.26107300,-4.29072300,3.93700800,0.00787402
-3.51999967,-0.83046260,-4.27534400,3.93700800,0.00787402
-3.43999967,-0.44598910,-4.19845000,3.92162900,0.00784326
-3.35999967,-0.12303150,-4.02928100,3.92162900,0.00784326
-3.27999966,0.10765260,-3.78321800,3.93700800,0.00787402
-3.19999966,0.26144190,-3.44488200,3.96776600,0.00793553
-3.11999966,0.33833660,-3.01427100,4.02928100,0.00805856
-3.03999966,0.33833660,-2.50676700,4.10617600,0.00821235
-2.95999966,0.30757870,-1.98388300,4.18307100,0.00836614
-2.87999966,0.23068400,-1.43024100,4.25996500,0.00851993
-2.79999966,0.15378940,-0.92273620,4.29072300,0.00858145
-2.71999966,0.09227362,-0.49212600,4.27534400,0.00855069
-2.63999966,0.03075787,-0.18454720,4.18307100,0.00839690
-2.55999966,0.00000000,-0.01537894,4.02928100,0.00805856
-2.47999965,0.00000000,-0.01537894,3.79859700,0.00756644
-2.39999965,0.03075787,-0.18454720,3.49101900,0.00688976
-2.31999965,0.09227362,-0.49212600,3.10654500,0.00602854
-2.23999965,0.15378940,-0.92273620,2.67593500,0.00501353
-2.15999965,0.23068400,-1.43024100,2.21456700,0.00396777
-2.07999965,0.30757870,-1.98388300,1.73782000,0.00286048
-1.99999965,0.35371550,-2.50676700,1.27645200,0.00184547
-1.91999965,0.33833660,-3.01427100,0.86122040,0.00098425
-1.83999965,0.27682080,-3.44488200,0.47674700,0.00033834
-1.75999964,0.10765260,-3.78321800,0.15378940,0.00003076
-1.67999964,-0.13841040,-4.02928100,-0.15378940,0.00006152
-1.59999964,-0.49212600,-4.19845000,-0.43061020,0.00046137
-1.51999964,-0.92273620,-4.27534400,-0.72281000,0.00116880
-1.43999964,-1.43024100,-4.29072300,-0.99963080,0.00218381
-1.35999964,-1.96850400,-4.25996500,-1.24569400,0.00335261
-1.27999964,-2.52214600,-4.18307100,-1.46099900,0.00455217
-1.19999964,-3.01427100,-4.10617600,-1.43024100,0.00572097
-1.11999964,-3.44488200,-4.02928100,-1.04576800,0.00670522
-1.03999963,-3.73708200,-3.96776600,-0.50750490,0.00741265
-0.95999963,-3.90625000,-3.93700800,-0.07689468,0.00778174
-0.87999963,-3.90625000,-3.92162900,-0.07689468,0.00778174
-0.79999963,-3.73708200,-3.92162900,-0.79970470,0.00741265
-0.71999963,-3.44488200,-3.93700800,-2.36835600,0.00670522
-0.63999963,-3.01427100,-3.93700800,-4.65981800,0.00572097
-0.55999963,-2.52214600,-3.95238700,-7.25885800,0.00455217
-0.47999963,-1.96850400,-3.95238700,-9.39653000,0.00335261
-0.39999963,-1.44562000,-3.93700800,-9.96555000,0.00218381
-0.31999963,-0.95349410,-3.93700800,-7.75098400,0.00116880
-0.23999962,-0.53826270,-3.92162900,-1.76857800,0.00046137
-0.15999962,-0.16916830,-3.92162900,8.68909800,0.00006152
-0.07999962,0.16916830,-3.93700800,23.89887000,0.00003076
0.00000038,0.49212600,-3.96776600,43.72231000,0.00033834
0.08000038,0.81508360,-4.02928100,67.57505000,0.00098425
0.16000038,1.15342000,-4.10617600,94.41129000,0.00184547
0.24000038,1.49175700,-4.18307100,122.95460000,0.00286048
0.32000038,1.75319900,-4.25996500,151.74400000,0.00396777
0.40000038,1.81471400,-4.29072300,179.34920000,0.00501353
0.48000039,1.56865100,-4.27534400,204.52450000,0.00599779
0.56000039,1.03038900,-4.19845000,226.25490000,0.00685901
0.64000039,0.35371550,-4.02928100,243.87920000,0.00756644
0.72000039,-0.32295760,-3.78321800,257.08970000,0.00808932
0.80000039,-0.84584150,-3.44488200,265.94790000,0.00848917
0.88000039,-1.12266200,-3.01427100,270.77690000,0.00873524
0.96000039,-1.15342000,-2.50676700,272.06880000,0.00891978
1.04000039,-1.10728300,-1.98388300,270.39250000,0.00898130
1.12000039,-1.33796700,-1.43024100,266.25550000,0.00898130
1.20000039,-2.49138800,-0.93811510,260.01170000,0.00888903
1.28000040,-5.21345900,-0.52288380,251.89160000,0.00867372
1.36000040,-9.70410800,-0.23068400,241.97220000,0.00839690
1.44000040,-15.91720000,-0.04613681,230.19190000,0.00802781
1.52000040,-23.62205000,0.03075787,216.47390000,0.00765871
1.60000040,-32.40342000,0.03075787,200.75660000,0.00728962
1.68000040,-41.84609000,-0.01537894,183.11700000,0.00695128
1.76000040,-51.65784000,-0.10765260,163.73950000,0.00664370
1.84000040,-61.74643000,-0.24606300,143.03950000,0.00633612
1.92000040,-72.32713000,-0.46136810,121.58590000,0.00590551
2.00000041,-84.19968000,-0.87659940,100.10150000,0.00513657
2.08000041,-98.22527000,-1.63016700,79.33994000,0.00384473
2.16000041,-114.88070000,-2.58366100,60.08550000,0.00224533
2.24000041,-134.35040000,-3.53715500,42.93799000,0.00064592
2.32000041,-156.55760000,-4.21382900,28.34338000,-0.00049213
2.40000041,-181.07160000,-4.39837600,16.47084000,-0.00079970
2.48000041,-207.30810000,-3.96776600,7.27423700,-0.00009227
2.56000041,-234.45190000,-2.99889300,0.41523130,0.00150714
2.64000041,-261.74950000,-1.81471400,-4.55216500,0.00347564
2.72000042,-288.52420000,-0.95349410,-8.32000400,0.00492126
2.80000042,-314.51460000,-1.41486200,-11.47269000,0.00424459
2.88000042,-339.58230000,-4.16769200,-14.28703000,-0.00015379
2.96000042,-363.40430000,-9.68872900,-16.77842000,-0.00907357
3.04000042,-385.68840000,-18.19328000,-18.82382000,-0.02279158
3.12000042,-406.14230000,-29.54294000,-20.19254000,-0.04106176
3.20000042,-424.47400000,-43.29170000,-20.63853000,-0.06320743
3.28000042,-440.49890000,-58.90133000,-20.00800000,-0.08833662
3.36000042,-454.03230000,-75.77202000,-18.27018000,-0.11546510
3.44000042,-465.01290000,-93.42703000,-15.56348000,-0.14388530
3.52000043,-473.47130000,-111.62030000,-12.30315000,-0.17319760
3.60000043,-479.66900000,-130.65940000,-8.96592000,-0.20386320
3.68000043,-483.89820000,-150.95960000,-5.81323800,-0.23658960
3.76000043,-486.26660000,-172.67470000,-3.07578700,-0.27171500
3.84000043,-486.80480000,-195.82000000,-0.87659940,-0.30954720
3.92000043,-485.46690000,-220.25710000,0.73818890,-0.35005540
4.00000043,-482.12960000,-245.67850000,1.84547200,-0.39283960
4.08000043,-476.70090000,-271.59200000,2.50676700,-0.43719240
4.16000043,-469.10370000,-297.42860000,2.86048200,-0.48200660
4.24000044,-459.38420000,-322.58860000,3.02965000,-0.52605190
4.32000044,-447.60390000,-346.50280000,3.09116600,-0.56785180
4.40000044,-434.05510000,-368.87920000,3.13730300,-0.60623770
4.48000044,-419.30670000,-389.53310000,3.24495600,-0.64004060
4.56000044,-403.86620000,-408.11080000,3.42950300,-0.66821480
4.64000044,-388.22590000,-424.32020000,3.73708200,-0.68992980
4.72000044,-372.80080000,-437.93060000,4.13693400,-0.70466290
4.80000044,-357.80630000,-448.72660000,4.62906000,-0.71226010
4.88000044,-343.27320000,-456.63140000,5.16732200,-0.71293680
4.96000045,-329.07850000,-461.61410000,5.70558500,-0.70721580
5.04000045,-314.94520000,-463.76720000,6.22846900,-0.69589690
5.12000045,-300.35060000,-463.22890000,6.70521600,-0.67984130
5.20000045,-284.91020000,-460.32230000,7.12044700,-0.66006400
5.28000045,-268.71610000,-455.38570000,7.45878400,-0.63745700
5.36000045,-252.12230000,-448.61900000,7.70484700,-0.61272760
5.44000045,-235.57450000,-440.20670000,7.82787800,-0.58639880
5.52000045,-219.61120000,-430.17960000,7.82787800,-0.55862450
5.60000045,-204.64750000,-418.56850000,7.70484700,-0.52952750
5.68000045,-190.91410000,-405.35800000,7.45878400,-0.49907730
5.76000046,-178.42640000,-390.57890000,7.12044700,-0.46730440
5.84000046,-166.95370000,-374.29260000,6.70521600,-0.43423970
5.92000046,-155.83470000,-356.57600000,6.22846900,-0.40003690
6.00000046,-144.42360000,-337.70610000,5.72096400,-0.36509600
6.08000046,-132.56640000,-318.22090000,5.21345900,-0.33030880
6.16000046,-120.37090000,-298.70510000,4.69057600,-0.29675200
6.24000046,-108.06780000,-279.75820000,4.18307100,-0.26550200
6.32000046,-95.99532000,-261.82640000,3.66018700,-0.23745080
6.40000046,-84.52263000,-245.21710000,3.12192400,-0.21309060
6.48000047,-73.88041000,-229.97660000,2.56828200,-0.19254430
6.56000047,-64.20706000,-215.96640000,1.99926200,-0.17553520
6.64000047,-55.50258000,-202.87890000,1.43024100,-0.16132510
6.72000047,-47.38250000,-190.12980000,0.89197830,-0.14859130
6.80000047,-39.53925000,-177.22690000,0.41523130,-0.13625740
6.88000047,-32.00356000,-164.21630000,0.06151574,-0.12389270
6.96000047,-24.92926000,-151.37490000,-0.12303150,-0.11158960
7.04000047,-18.54700000,-139.11790000,-0.09227362,-0.09974778
7.12000047,-13.10285000,-127.90660000,0.15378940,-0.08885950
7.20000048,-8.78137200,-118.11020000,0.63053640,-0.07947835
7.28000048,-5.70558500,-109.92860000,1.33796700,-0.07200418
7.36000048,-3.81397600,-103.33110000,2.19918800,-0.06649853
7.44000048,-2.95275600,-98.05609000,3.16806100,-0.06277682
7.52000048,-2.73745100,-93.39628000,4.19845000,-0.06003937
7.60000048,-2.79896600,-88.72108000,5.18270100,-0.05745571
7.68000048,-2.99889300,-83.78444000,6.10543700,-0.05477977
7.76000048,-3.27571300,-78.57098000,6.90514200,-0.05182702
7.84000048,-3.66018700,-73.23450000,7.56643700,-0.04865896
7.92000048,-4.24458600,-68.03641000,8.08932000,-0.04549089
8.00000049,-5.13656500,-63.22281000,8.47379300,-0.04244586
8.08000049,-6.39763700,-58.99360000,8.73523500,-0.03976993
8.16000049,-8.02780400,-55.45644000,8.90440500,-0.03755536
8.24000049,-9.99630800,-52.51907000,8.98129900,-0.03586368
8.32000049,-12.10322000,-49.85851000,8.98129900,-0.03451033
8.40000049,-14.17938000,-47.07492000,8.90440500,-0.03331078
8.48000049,-16.10175000,-44.01451000,8.73523500,-0.03229577
8.56000049,-17.77805000,-40.67728000,8.47379300,-0.03161909
8.64000049,-19.10064000,-37.12475000,8.08932000,-0.03131152
8.72000050,-20.02337000,-33.47995000,7.56643700,-0.03158834
8.80000050,-20.53088000,-29.91203000,6.90514200,-0.03244956
8.88000050,-20.66929000,-26.52866000,6.10543700,-0.03392594
8.96000050,-20.45399000,-23.42212000,5.18270100,-0.03592520
9.04000050,-20.02337000,-20.59240000,4.19845000,-0.03829355
9.12000050,-19.48511000,-17.85494000,3.16806100,-0.04075418
9.20000050,-18.99298000,-15.04060000,2.19918800,-0.04299951
9.28000050,-18.70079000,-12.07246000,1.32258800,-0.04484498
9.36000050,-18.73154000,-8.93516300,0.63053640,-0.04616757
9.44000051,-19.19291000,-5.61331200,0.15378940,-0.04690576
9.52000051,-20.14641000,-2.21456700,-0.09227362,-0.04709030
9.60000051,-21.54589000,1.23031500,-0.07689468,-0.04669045
9.68000051,-23.36060000,4.59830200,0.15378940,-0.04585999
9.76000051,-25.43676000,7.82787800,0.58439960,-0.04462967
9.84000051,-27.66671000,10.88829000,1.12266200,-0.04312254
9.92000051,-29.83514000,13.74877000,1.73782000,-0.04133858
10.00000051,-31.80364000,16.42470000,2.35297700,-0.03933932
10.08000051,-33.40305000,18.85458000,2.92199800,-0.03718627
10.16000051,-34.54109000,20.99225000,3.39874500,-0.03491019
10.24000052,-35.18700000,22.79158000,3.76783900,-0.03257259
10.32000052,-35.29466000,24.19107000,4.04466000,-0.03020423
10.40000052,-34.92556000,25.17532000,4.21382900,-0.02783588
10.48000052,-34.11048000,25.74434000,4.29072300,-0.02552903
10.56000052,-32.94168000,25.92889000,4.29072300,-0.02322219
10.64000052,-31.49606000,25.75972000,4.25996500,-0.02091535
10.72000052,-29.78900000,25.28297000,4.18307100,-0.01860851
10.80000052,-27.85125000,24.52940000,4.10617600,-0.01624016
10.88000052,-25.69820000,23.48363000,4.02928100,-0.01381029
10.96000053,-23.37598000,22.14567000,3.96776600,-0.01138041
11.04000053,-20.89997000,20.53088000,3.93700800,-0.00898130
11.12000053,-18.30093000,18.62389000,3.92162900,-0.00673597
11.20000053,-15.62500000,16.45546000,3.92162900,-0.00464444
11.28000053,-12.88755000,14.05635000,3.93700800,-0.00276821
11.36000053,-10.10396000,11.45731000,3.93700800,-0.00107653
11.44000053,-7.32037400,8.70447700,3.95238700,0.00039985
11.52000053,-4.53678600,5.84399600,3.95238700,0.00175320
11.60000053,-1.72244100,2.89124000,3.95238700,0.00310655
