Time,Channel A,Channel B,Channel C,Channel D
(ns),(mV),(mV),(mV),(V)

-15.43225883,-4.02928100,-3.89087100,3.81397600,0.00003076
-15.35225882,-4.02928100,-3.53715500,3.66018700,0.00036909
-15.27225882,-3.78321800,-2.86048200,3.59867100,0.00098425
-15.19225882,-3.36798700,-1.93774600,3.59867100,0.00184547
-15.11225882,-2.82972400,-0.84584150,3.64480800,0.00286048
-15.03225882,-2.21456700,0.30757870,3.72170300,0.00396777
-14.95225882,-1.59940900,1.43024100,3.78321800,0.00501353
-14.87225882,-1.01501000,2.41449300,3.84473400,0.00602854
-14.79225882,-0.53826270,3.19881900,3.89087100,0.00688976
-14.71225882,-0.15378940,3.75246000,3.90625000,0.00756644
-14.63225881,0.12303150,4.02928100,3.92162900,0.00805856
-14.55225881,0.27682080,4.06003900,3.93700800,0.00839690
-14.47225881,0.35371550,3.89087100,3.93700800,0.00855069
-14.39225881,0.35371550,3.53715500,3.95238700,0.00858145
-14.31225881,0.30757870,3.06040800,3.95238700,0.00851993
-14.23225881,0.23068400,2.52214600,3.95238700,0.00836614
-14.15225881,0.15378940,1.93774600,3.93700800,0.00821235
-14.07225881,0.09227362,1.36872500,3.93700800,0.00805856
-13.99225881,0.03075787,0.79970470,3.92162900,0.00793553
-13.91225880,0.00000000,0.26144190,3.92162900,0.00784326
-13.83225880,0.00000000,-0.26144190,3.93700800,0.00784326
-13.75225880,0.03075787,-0.76894680,3.96776600,0.00793553
-13.67225880,0.09227362,-1.27645200,4.02928100,0.00805856
-13.59225880,0.15378940,-1.78395700,4.10617600,0.00821235
-13.51225880,0.23068400,-2.27608300,4.18307100,0.00836614
-13.43225880,0.30757870,-2.75283000,4.25996500,0.00851993
-13.35225880,0.35371550,-3.18344000,4.29072300,0.00858145
-13.27225880,0.33833660,-3.53715500,4.27534400,0.00858145
-13.19225880,0.27682080,-3.78321800,4.18307100,0.00842766
-13.11225879,0.10765260,-3.90625000,4.02928100,0.00808932
-13.03225879,-0.13841040,-3.89087100,3.79859700,0.00753568
-12.95225879,-0.49212600,-3.73708200,3.49101900,0.00679749
-12.87225879,-0.92273620,-3.42950300,3.10654500,0.00584400
-12.79225879,-1.43024100,-3.01427100,2.67593500,0.00470596
-12.71225879,-1.96850400,-2.52214600,2.21456700,0.00347564
-12.63225879,-2.52214600,-1.96850400,1.73782000,0.00224533
-12.55225879,-3.01427100,-1.43024100,1.27645200,0.00116880
-12.47225879,-3.44488200,-0.92273620,0.83046260,0.00030758
-12.39225878,-3.73708200,-0.49212600,0.46136810,-0.00018455
-12.31225878,-3.90625000,-0.13841040,0.13841040,-0.00018455
-12.23225878,-3.90625000,0.10765260,-0.12303150,0.00030758
-12.15225878,-3.73708200,0.27682080,-0.30757870,0.00135335
-12.07225878,-3.44488200,0.33833660,-0.43061020,0.00282972
-11.99225878,-3.01427100,0.35371550,-0.50750490,0.00470596
-11.91225878,-2.52214600,0.30757870,-0.53826270,0.00682825
-11.83225878,-1.96850400,0.23068400,-0.53826270,0.00898130
-11.75225878,-1.43024100,0.15378940,-0.50750490,0.01107283
-11.67225877,-0.92273620,0.09227362,-0.43061020,0.01291831
-11.59225877,-0.49212600,0.03075787,-0.30757870,0.01436393
-11.51225877,-0.13841040,0.00000000,-0.12303150,0.01537894
-11.43225877,0.10765260,0.00000000,0.13841040,0.01587106
-11.35225877,0.27682080,0.03075787,0.46136810,0.01587106
-11.27225877,0.33833660,0.09227362,0.83046260,0.01544045
-11.19225877,0.35371550,0.15378940,1.27645200,0.01464075
-11.11225877,0.30757870,0.23068400,1.73782000,0.01356422
-11.03225877,0.23068400,0.30757870,2.21456700,0.01233391
-10.95225877,0.15378940,0.33833660,2.67593500,0.01107283
-10.87225876,0.09227362,0.33833660,3.10654500,0.00990404
-10.79225876,0.03075787,0.26144190,3.49101900,0.00891978
-10.71225876,0.00000000,0.10765260,3.79859700,0.00815084
-10.63225876,0.00000000,-0.12303150,4.02928100,0.00759720
-10.55225876,0.03075787,-0.44598910,4.18307100,0.00728962
-10.47225876,0.09227362,-0.83046260,4.27534400,0.00716658
-10.39225876,0.15378940,-1.26107300,4.29072300,0.00719734
-10.31225876,0.23068400,-1.73782000,4.25996500,0.00728962
-10.23225876,0.30757870,-2.21456700,4.18307100,0.00744341
-10.15225875,0.35371550,-2.67593500,4.10617600,0.00756644
-10.07225875,0.33833660,-3.10654500,4.02928100,0.00765871
-9.99225875,0.27682080,-3.49101900,3.96776600,0.00775098
-9.91225875,0.10765260,-3.79859700,3.93700800,0.00781250
-9.83225875,-0.13841040,-4.02928100,3.92162900,0.00787402
-9.75225875,-0.49212600,-4.18307100,3.92162900,0.00796629
-9.67225875,-0.92273620,-4.27534400,3.93700800,0.00808932
-9.59225875,-1.43024100,-4.29072300,3.93700800,0.00821235
-9.51225875,-1.96850400,-4.25996500,3.95238700,0.00836614
-9.43225874,-2.52214600,-4.18307100,3.95238700,0.00851993
-9.35225874,-3.01427100,-4.10617600,3.95238700,0.00858145
-9.27225874,-3.44488200,-4.02928100,3.93700800,0.00855069
-9.19225874,-3.73708200,-3.96776600,3.92162900,0.00839690
-9.11225874,-3.90625000,-3.92162900,3.92162900,0.00805856
-9.03225874,-3.90625000,-3.92162900,3.92162900,0.00756644
-8.95225874,-3.73708200,-3.96776600,3.92162900,0.00688976
-8.87225874,-3.44488200,-4.02928100,3.93700800,0.00602854
-8.79225874,-3.01427100,-4.10617600,3.95238700,0.00501353
-8.71225874,-2.52214600,-4.18307100,3.95238700,0.00396777
-8.63225873,-1.96850400,-4.25996500,3.95238700,0.00286048
-8.55225873,-1.43024100,-4.29072300,3.95238700,0.00184547
-8.47225873,-0.92273620,-4.27534400,3.93700800,0.00098425
-8.39225873,-0.49212600,-4.19845000,3.92162900,0.00036909
-8.31225873,-0.13841040,-4.02928100,3.92162900,0.00003076
-8.23225873,0.10765260,-3.78321800,3.92162900,0.00003076
-8.15225873,0.27682080,-3.44488200,3.92162900,0.00036909
-8.07225873,0.33833660,-3.01427100,3.93700800,0.00098425
-7.99225873,0.35371550,-2.50676700,3.95238700,0.00184547
-7.91225872,0.30757870,-1.98388300,3.95238700,0.00286048
-7.83225872,0.23068400,-1.43024100,3.95238700,0.00396777
-7.75225872,0.15378940,-0.92273620,3.95238700,0.00501353
-7.67225872,0.09227362,-0.49212600,3.93700800,0.00602854
-7.59225872,0.03075787,-0.18454720,3.92162900,0.00688976
-7.51225872,0.00000000,-0.01537894,3.92162900,0.00756644
-7.43225872,0.00000000,-0.01537894,3.92162900,0.00805856
-7.35225872,0.03075787,-0.18454720,3.92162900,0.00839690
-7.27225872,0.09227362,-0.49212600,3.93700800,0.00855069
-7.19225872,0.15378940,-0.92273620,3.95238700,0.00858145
-7.11225871,0.23068400,-1.43024100,3.95238700,0.00851993
-7.03225871,0.30757870,-1.98388300,3.95238700,0.00836614
-6.95225871,0.33833660,-2.50676700,3.95238700,0.00821235
-6.87225871,0.33833660,-3.01427100,3.93700800,0.00805856
-6.79225871,0.26144190,-3.44488200,3.92162900,0.00793553
-6.71225871,0.10765260,-3.78321800,3.92162900,0.00787402
-6.63225871,-0.12303150,-4.02928100,3.92162900,0.00784326
-6.55225871,-0.44598910,-4.19845000,3.92162900,0.00784326
-6.47225871,-0.83046260,-4.27534400,3.93700800,0.00787402
-6.39225870,-1.26107300,-4.29072300,3.95238700,0.00787402
-6.31225870,-1.73782000,-4.25996500,3.95238700,0.00790477
-6.23225870,-2.21456700,-4.18307100,3.95238700,0.00790477
-6.15225870,-2.67593500,-4.10617600,3.95238700,0.00787402
-6.07225870,-3.10654500,-4.02928100,3.93700800,0.00787402
-5.99225870,-3.47564000,-3.96776600,3.92162900,0.00784326
-5.91225870,-3.78321800,-3.92162900,3.92162900,0.00784326
-5.83225870,-4.04466000,-3.92162900,3.92162900,0.00787402
-5.75225870,-4.22920700,-3.96776600,3.92162900,0.00793553
-5.67225869,-4.36761800,-4.02928100,3.93700800,0.00805856
-5.59225869,-4.44451300,-4.10617600,3.95238700,0.00821235
-5.51225869,-4.49065000,-4.18307100,3.95238700,0.00836614
-5.43225869,-4.49065000,-4.25996500,3.95238700,0.00851993
-5.35225869,-4.45989200,-4.29072300,3.95238700,0.00858145
-5.27225869,-4.36761800,-4.27534400,3.93700800,0.00855069
-5.19225869,-4.24458600,-4.19845000,3.92162900,0.00839690
-5.11225869,-4.04466000,-4.02928100,3.92162900,0.00805856
-5.03225869,-3.78321800,-3.78321800,3.92162900,0.00756644
-4.95225869,-3.42950300,-3.44488200,3.92162900,0.00688976
-4.87225868,-2.99889300,-3.01427100,3.93700800,0.00602854
-4.79225868,-2.50676700,-2.50676700,3.95238700,0.00501353
-4.71225868,-1.98388300,-1.98388300,3.95238700,0.00396777
-4.63225868,-1.43024100,-1.43024100,3.95238700,0.00286048
-4.55225868,-0.92273620,-0.92273620,3.95238700,0.00184547
-4.47225868,-0.49212600,-0.49212600,3.93700800,0.00098425
-4.39225868,-0.16916830,-0.16916830,3.92162900,0.00036909
-4.31225868,-0.01537894,-0.01537894,3.92162900,0.00003076
-4.23225868,-0.03075787,-0.03075787,3.92162900,0.00003076
-4.15225867,-0.23068400,-0.23068400,3.92162900,0.00036909
-4.07225867,-0.58439960,-0.58439960,3.93700800,0.00098425
-3.99225867,-1.09190400,-1.09190400,3.95238700,0.00184547
-3.91225867,-1.67630400,-1.67630400,3.95238700,0.00286048
-3.83225867,-2.27608300,-2.27608300,3.95238700,0.00396777
-3.75225867,-2.86048200,-2.86048200,3.95238700,0.00501353
-3.67225867,-3.35260800,-3.35260800,3.93700800,0.00599779
-3.59225867,-3.70632400,-3.70632400,3.92162900,0.00682825
-3.51225867,-3.89087100,-3.89087100,3.92162900,0.00753568
-3.43225866,-3.89087100,-3.89087100,3.92162900,0.00812008
-3.35225866,-3.70632400,-3.70632400,3.92162900,0.00858145
-3.27225866,-3.35260800,-3.35260800,3.93700800,0.00895054
-3.19225866,-2.86048200,-2.86048200,3.95238700,0.00922736
-3.11225866,-2.27608300,-2.27608300,3.95238700,0.00947343
-3.03225866,-1.67630400,-1.67630400,3.95238700,0.00959646
-2.95225866,-1.09190400,-1.09190400,3.95238700,0.00959646
-2.87225866,-0.58439960,-0.58439960,3.93700800,0.00944267
-2.79225866,-0.23068400,-0.23068400,3.92162900,0.00901206
-2.71225866,-0.03075787,-0.03075787,3.92162900,0.00833538
-2.63225865,-0.01537894,-0.01537894,3.92162900,0.00728962
-2.55225865,-0.16916830,-0.16916830,3.92162900,0.00587475
-2.47225865,-0.49212600,-0.49212600,3.93700800,0.00415231
-2.39225865,-0.92273620,-0.92273620,3.95238700,0.00215305
-2.31225865,-1.43024100,-1.43024100,3.95238700,0.00000000
-2.23225865,-1.98388300,-1.98388300,3.95238700,-0.00218381
-2.15225865,-2.50676700,-2.50676700,3.95238700,-0.00418307
-2.07225865,-3.01427100,-3.01427100,3.93700800,-0.00590551
-1.99225865,-3.44488200,-3.44488200,3.92162900,-0.00713583
-1.91225864,-3.78321800,-3.78321800,3.92162900,-0.00778174
-1.83225864,-4.02928100,-4.02928100,3.92162900,-0.00775098
-1.75225864,-4.19845000,-4.19845000,3.92162900,-0.00704355
-1.67225864,-4.27534400,-4.27534400,3.93700800,-0.00569021
-1.59225864,-4.29072300,-4.29072300,3.95238700,-0.00387549
-1.51225864,-4.25996500,-4.25996500,3.95238700,-0.00169168
-1.43225864,-4.18307100,-4.18307100,3.95238700,0.00061516
-1.35225864,-4.10617600,-4.10617600,3.99852300,0.00286048
-1.27225864,-4.02928100,-4.02928100,4.13693400,0.00482899
-1.19225863,-3.96776600,-3.96776600,4.22920700,0.00642840
-1.11225863,-3.93700800,-3.93700800,4.10617600,0.00750492
-1.03225863,-3.92162900,-3.92162900,3.61405000,0.00805856
-0.95225863,-3.92162900,-3.92162900,2.58366100,0.00805856
-0.87225863,-3.93700800,-3.93700800,0.99963080,0.00756644
-0.79225863,-3.93700800,-3.93700800,-1.09190400,0.00673597
-0.71225863,-3.95238700,-3.95238700,-3.38336600,0.00565945
-0.63225863,-3.95238700,-3.95238700,-5.47490100,0.00442913
-0.55225863,-3.95238700,-3.93700800,-6.65908000,0.00319882
-0.47225863,-3.93700800,-3.93700800,-6.22846900,0.00206078
-0.39225862,-3.93700800,-3.92162900,-3.79859700,0.00107653
-0.31225862,-3.92162900,-3.92162900,0.81508360,0.00030758
-0.23225862,-3.90625000,-3.93700800,7.55105800,-0.00024606
-0.15225862,-3.89087100,-3.96776600,16.14788000,-0.00064592
-0.07225862,-3.84473400,-4.02928100,26.25184000,-0.00089198
0.00774138,-3.78321800,-4.10617600,37.43233000,-0.00101501
0.08774138,-3.72170300,-4.18307100,49.30487000,-0.00107653
0.16774138,-3.64480800,-4.25996500,61.63877000,-0.00107653
0.24774138,-3.64480800,-4.29072300,74.41867000,-0.00101501
0.32774139,-3.72170300,-4.27534400,87.76759000,-0.00086122
0.40774139,-3.86011300,-4.19845000,101.96230000,-0.00061516
0.48774139,-3.93700800,-4.02928100,117.32590000,-0.00024606
0.56774139,-3.86011300,-3.78321800,134.08890000,0.00027682
0.64774139,-3.50639700,-3.44488200,152.35910000,0.00092274
0.72774139,-2.86048200,-3.01427100,171.95190000,0.00166093
0.80774139,-1.96850400,-2.50676700,192.34440000,0.00255290
0.88774139,-0.95349410,-1.98388300,212.67530000,0.00347564
0.96774139,-0.07689468,-1.43024100,231.77590000,0.00442913
1.04774139,0.13841040,-0.92273620,248.29290000,0.00535187
1.12774140,-0.72281000,-0.50750490,260.78060000,0.00618233
1.20774140,-2.78358700,-0.19992620,267.96260000,0.00692052
1.28774140,-5.93626900,-0.03075787,268.83920000,0.00756644
1.36774140,-9.91941400,0.00000000,262.85680000,0.00808932
1.44774140,-14.37930000,-0.09227362,249.98460000,0.00855069
1.52774140,-19.02374000,-0.30757870,230.77630000,0.00891978
1.60774140,-23.69894000,-0.59977850,206.29300000,0.00922736
1.68774140,-28.52793000,-0.95349410,178.02660000,0.00947343
1.76774140,-33.86442000,-1.36872500,147.76080000,0.00959646
1.84774141,-40.66191000,-1.89160900,117.32590000,0.00950418
1.92774141,-49.87389000,-2.53752400,88.42888000,0.00910433
2.00774141,-62.05401000,-3.21419800,62.51537000,0.00851993
2.08774141,-77.41756000,-3.75246000,40.63115000,0.00799705
2.16774141,-95.90305000,-3.99852300,23.28371000,0.00781250
2.24774141,-117.09520000,-3.79859700,10.51919000,0.00812008
2.32774141,-140.34820000,-3.09116600,1.90698800,0.00910433
2.40774141,-164.90830000,-1.95312500,-3.29109200,0.01061147
2.48774141,-190.05290000,-0.63053640,-5.99778500,0.01230315
2.56774142,-215.19740000,0.50750490,-7.24347900,0.01365650
2.64774142,-240.21900000,0.75356790,-7.96628900,0.01350271
2.72774142,-265.13280000,-0.58439960,-8.68909800,0.01088829
2.80774142,-289.72380000,-3.72170300,-9.71948700,0.00544414
2.88774142,-313.80720000,-8.67371900,-11.04208000,-0.00279897
2.96774142,-337.07550000,-15.20977000,-12.48770000,-0.01341043
3.04774142,-359.25200000,-22.96075000,-13.74877000,-0.02583661
3.12774142,-380.02890000,-31.49606000,-14.56385000,-0.03937008
3.20774142,-399.08340000,-40.52350000,-14.73302000,-0.05361097
3.28774142,-416.18480000,-49.92003000,-14.17938000,-0.06837475
3.36774143,-431.17920000,-59.90096000,-13.16437000,-0.08409203
3.44774143,-444.17440000,-71.15834000,-11.98019000,-0.10190080
3.52774143,-455.32420000,-84.50725000,-10.74988000,-0.12315450
3.60774143,-464.56690000,-100.42450000,-9.55032000,-0.14868360
3.68774143,-471.79500000,-119.07910000,-8.41227800,-0.17907230
3.76774143,-476.87010000,-140.44040000,-7.28961600,-0.21435160
3.84774143,-479.60750000,-164.10860000,-6.15157400,-0.25412150
3.92774143,-479.89970000,-189.53000000,-4.98277500,-0.29739790
4.00774143,-477.66970000,-215.93560000,-3.72170300,-0.34285800
4.08774144,-472.94840000,-242.57200000,-2.38373500,-0.38899480
4.16774144,-465.85870000,-268.73150000,-1.03038900,-0.43420890
4.24774144,-456.78520000,-294.07600000,0.29219980,-0.47726990
4.32774144,-446.17370000,-318.40550000,1.53789400,-0.51703980
4.40774144,-434.50110000,-341.36620000,2.62979800,-0.55253450
4.48774144,-422.13640000,-362.68150000,3.53715500,-0.58301550
4.56774144,-409.32570000,-382.07430000,4.24458600,-0.60799090
4.64774144,-396.22290000,-399.32950000,4.73671200,-0.62733760
4.72774144,-382.82790000,-414.29320000,5.02891200,-0.64111710
4.80774145,-369.01760000,-426.84240000,5.13656500,-0.64960630
4.88774145,-354.63820000,-436.90020000,5.10580700,-0.65323570
4.96774145,-339.36700000,-444.46660000,4.96739600,-0.65243600
5.04774145,-323.05000000,-449.71080000,4.78284900,-0.64769930
5.12774145,-305.93320000,-452.78660000,4.56754400,-0.63939470
5.20774145,-288.47810000,-453.72470000,4.32148100,-0.62776820
5.28774145,-271.20750000,-452.50980000,4.06003900,-0.61278910
5.36774145,-254.62900000,-449.08030000,3.76783900,-0.59445740
5.44774145,-239.12710000,-443.34400000,3.41412400,-0.57274230
5.52774145,-224.90160000,-435.30080000,2.99889300,-0.54767470
5.60774146,-211.87560000,-424.95070000,2.50676700,-0.51946970
5.68774146,-199.75700000,-412.46310000,1.98388300,-0.48852730
5.76774146,-187.88450000,-398.03760000,1.43024100,-0.45543180
5.84774146,-175.59670000,-382.02810000,0.92273620,-0.42098300
5.92774146,-162.75530000,-365.00370000,0.49212600,-0.38631890
6.00774146,-149.48330000,-347.54860000,0.18454720,-0.35257750
6.08774146,-136.07280000,-330.17040000,0.01537894,-0.32083540
6.16774146,-122.90850000,-313.25360000,0.01537894,-0.29183070
6.24774146,-110.37460000,-297.01340000,0.18454720,-0.26602490
6.32774147,-98.74815000,-281.48070000,0.49212600,-0.24338710
6.40774147,-88.15206000,-266.54770000,0.92273620,-0.22360970
6.48774147,-78.52485000,-251.93770000,1.43024100,-0.20598550
6.56774147,-69.45128000,-237.20470000,1.98388300,-0.18946850
6.64774147,-60.51611000,-222.02570000,2.50676700,-0.17310530
6.72774147,-51.71936000,-206.50840000,3.01427100,-0.15674210
6.80774147,-43.18405000,-190.97560000,3.44488200,-0.14053270
6.88774147,-35.14087000,-175.88890000,3.78321800,-0.12500000
6.96774147,-27.85125000,-161.70950000,4.02928100,-0.11072830
7.04774148,-21.56127000,-148.79120000,4.19845000,-0.09833292
7.12774148,-16.39395000,-137.31850000,4.27534400,-0.08809055
7.20774148,-12.38004000,-127.30680000,4.29072300,-0.08012426
7.28774148,-9.39653000,-118.49470000,4.25996500,-0.07409572
7.36774148,-7.07431000,-110.29770000,4.18307100,-0.06917446
7.44774148,-5.05967000,-102.16230000,4.10617600,-0.06446850
7.52774148,-3.27571300,-93.99606000,4.04466000,-0.05967028
7.60774148,-1.72244100,-85.89136000,3.98314500,-0.05465674
7.68774148,-0.46136810,-78.15575000,3.93700800,-0.04958169
7.76774148,0.33833660,-71.11221000,3.90625000,-0.04462967
7.84774149,0.59977850,-65.05290000,3.87549200,-0.04007751
7.92774149,0.21530510,-60.17778000,3.82935500,-0.03614050
8.00774149,-0.76894680,-56.48683000,3.78321800,-0.03297244
8.08774149,-2.30684000,-53.81090000,3.72170300,-0.03057333
8.16774149,-4.13693400,-51.61171000,3.64480800,-0.02866634
8.24774149,-6.04392200,-49.36639000,3.59867100,-0.02697466
8.32774149,-7.90477300,-46.85962000,3.59867100,-0.02552903
8.40774149,-9.59645700,-43.98376000,3.66018700,-0.02439099
8.48774149,-11.10359000,-40.84645000,3.81397600,-0.02368356
8.56774150,-12.38004000,-37.58612000,4.06003900,-0.02352977
8.64774150,-13.44119000,-34.40268000,4.41375400,-0.02405266
8.72774150,-14.33317000,-31.44992000,4.85974400,-0.02522146
8.80774150,-15.10212000,-28.82013000,5.38262700,-0.02703617
8.88774150,-15.77879000,-26.51329000,5.92089000,-0.02931225
8.96774150,-16.39395000,-24.32948000,6.47453200,-0.03177289
9.04774150,-16.99372000,-22.00726000,6.96665800,-0.03407972
9.12774150,-17.62426000,-19.43897000,7.38188900,-0.03610975
9.20774150,-18.34707000,-16.57849000,7.67408900,-0.03770915
9.28774151,-19.16216000,-13.42581000,7.82787800,-0.03884719
9.36774151,-20.08489000,-10.05782000,7.82787800,-0.03949311
9.44774151,-21.06914000,-6.53604800,7.67408900,-0.03973917
9.52774151,-22.08415000,-2.96813500,7.38188900,-0.03964690
9.60774151,-23.11454000,0.53826270,6.96665800,-0.03927780
9.68774151,-24.08341000,3.93700800,6.47453200,-0.03869341
9.76774151,-24.96001000,7.21272100,5.92089000,-0.03786294
9.84774151,-25.74434000,10.36540000,5.38262700,-0.03681717
9.92774151,-26.37487000,13.33354000,4.85974400,-0.03552534
10.00774151,-26.89776000,16.07099000,4.41375400,-0.03401821
10.08774152,-27.29761000,18.51624000,4.06003900,-0.03229577
10.16774152,-27.58981000,20.60777000,3.81397600,-0.03041954
10.24774152,-27.80512000,22.31484000,3.66018700,-0.02835876
10.32774152,-27.95891000,23.62205000,3.59867100,-0.02620571
10.40774152,-28.00504000,24.54478000,3.59867100,-0.02389887
10.48774152,-27.95891000,25.11380000,3.64480800,-0.02153051
10.56774152,-27.74360000,25.39062000,3.72170300,-0.01906988
10.64774152,-27.32837000,25.40600000,3.78321800,-0.01654774
10.72774152,-26.62094000,25.17532000,3.84473400,-0.01399483
10.80774153,-25.62131000,24.69857000,3.89087100,-0.01147269
10.88774153,-24.31410000,23.99114000,3.90625000,-0.00901206
10.96774153,-22.68393000,23.02227000,3.92162900,-0.00670522
11.04774153,-20.79232000,21.83809000,3.93700800,-0.00461368
11.12774153,-18.67003000,20.40785000,3.93700800,-0.00273745
11.20774153,-16.36319000,18.79306000,3.95238700,-0.00107653
11.28774153,-13.93332000,16.97834000,3.95238700,0.00039985
11.36774153,-11.41117000,15.00984000,3.95238700,0.00175320
11.44774153,-8.82750900,12.85679000,3.95238700,0.00310655
