Time,Channel A,Channel B,Channel C,Channel D
(ns),(mV),(mV),(mV),(V)

-15.59999983,-3.76783900,0.15378940,4.07541800,0.00756644
-15.51999982,-3.26033400,0.53826270,4.45989200,0.00688976
-15.43999982,-2.52214600,1.01501000,4.95201700,0.00602854
-15.35999982,-1.58403000,1.59940900,5.53641700,0.00501353
-15.27999982,-0.53826270,2.21456700,6.16695300,0.00396777
-15.19999982,0.53826270,2.82972400,6.78211100,0.00286048
-15.11999982,1.58403000,3.36798700,7.32037400,0.00184547
-15.03999982,2.52214600,3.78321800,7.72022600,0.00098425
-14.95999982,3.26033400,3.99852300,7.93553100,0.00036909
-14.87999982,3.76783900,4.01390200,7.93553100,0.00003076
-14.79999981,4.01390200,3.76783900,7.68946800,0.00003076
-14.71999981,4.01390200,3.30647100,7.18196300,0.00036909
-14.63999981,3.78321800,2.61441900,6.45915300,0.00098425
-14.55999981,3.36798700,1.75319900,5.53641700,0.00184547
-14.47999981,2.82972400,0.78432570,4.49065000,0.00286048
-14.39999981,2.21456700,-0.24606300,3.41412400,0.00396777
-14.31999981,1.58403000,-1.24569400,2.35297700,0.00501353
-14.23999981,1.01501000,-2.18380900,1.41486200,0.00602854
-14.15999981,0.52288380,-2.99889300,0.67667320,0.00688976
-14.07999980,0.13841040,-3.66018700,0.15378940,0.00756644
-13.99999980,-0.10765260,-4.13693400,-0.09227362,0.00805856
-13.91999980,-0.23068400,-4.45989200,-0.09227362,0.00839690
-13.83999980,-0.24606300,-4.61368100,0.15378940,0.00855069
-13.75999980,-0.18454720,-4.62906000,0.58439960,0.00858145
-13.67999980,-0.06151574,-4.56754400,1.12266200,0.00851993
-13.59999980,0.06151574,-4.42913300,1.73782000,0.00836614
-13.51999980,0.18454720,-4.27534400,2.35297700,0.00821235
-13.43999980,0.24606300,-4.12155500,2.92199800,0.00805856
-13.35999980,0.23068400,-3.99852300,3.39874500,0.00793553
-13.27999979,0.10765260,-3.93700800,3.76783900,0.00784326
-13.19999979,-0.13841040,-3.92162900,4.04466000,0.00784326
-13.11999979,-0.47674700,-3.95238700,4.21382900,0.00793553
-13.03999979,-0.92273620,-4.01390200,4.29072300,0.00805856
-12.95999979,-1.43024100,-4.10617600,4.29072300,0.00821235
-12.87999979,-1.96850400,-4.18307100,4.25996500,0.00836614
-12.79999979,-2.52214600,-4.25996500,4.18307100,0.00851993
-12.71999979,-3.01427100,-4.29072300,4.10617600,0.00858145
-12.63999979,-3.44488200,-4.27534400,4.02928100,0.00855069
-12.55999978,-3.73708200,-4.18307100,3.96776600,0.00839690
-12.47999978,-3.90625000,-4.02928100,3.93700800,0.00805856
-12.39999978,-3.90625000,-3.79859700,3.92162900,0.00756644
-12.31999978,-3.73708200,-3.49101900,3.92162900,0.00688976
-12.23999978,-3.44488200,-3.10654500,3.93700800,0.00602854
-12.15999978,-3.01427100,-2.67593500,3.93700800,0.00501353
-12.07999978,-2.52214600,-2.21456700,3.95238700,0.00396777
-11.99999978,-1.96850400,-1.73782000,3.95238700,0.00286048
-11.91999978,-1.43024100,-1.26107300,3.95238700,0.00184547
-11.83999977,-0.93811510,-0.83046260,3.93700800,0.00098425
-11.75999977,-0.49212600,-0.43061020,3.92162900,0.00033834
-11.67999977,-0.13841040,-0.12303150,3.92162900,0.00003076
-11.59999977,0.12303150,0.09227362,3.92162900,0.00006152
-11.51999977,0.30757870,0.21530510,3.92162900,0.00046137
-11.43999977,0.43061020,0.24606300,3.93700800,0.00116880
-11.35999977,0.50750490,0.18454720,3.95238700,0.00218381
-11.27999977,0.53826270,0.06151574,3.95238700,0.00335261
-11.19999977,0.53826270,-0.06151574,3.95238700,0.00455217
-11.11999977,0.50750490,-0.18454720,3.95238700,0.00572097
-11.03999976,0.43061020,-0.24606300,3.93700800,0.00670522
-10.95999976,0.30757870,-0.23068400,3.92162900,0.00741265
-10.87999976,0.12303150,-0.10765260,3.92162900,0.00778174
-10.79999976,-0.13841040,0.13841040,3.92162900,0.00781250
-10.71999976,-0.46136810,0.47674700,3.92162900,0.00750492
-10.63999976,-0.83046260,0.92273620,3.93700800,0.00688976
-10.55999976,-1.27645200,1.43024100,3.95238700,0.00605930
-10.47999976,-1.73782000,1.96850400,3.95238700,0.00504429
-10.39999976,-2.21456700,2.52214600,3.95238700,0.00393701
-10.31999975,-2.67593500,3.02965000,3.95238700,0.00286048
-10.23999975,-3.10654500,3.44488200,3.93700800,0.00187623
-10.15999975,-3.47564000,3.75246000,3.93700800,0.00098425
-10.07999975,-3.78321800,3.90625000,3.92162900,0.00027682
-9.99999975,-4.04466000,3.89087100,3.90625000,-0.00024606
-9.91999975,-4.22920700,3.70632400,3.89087100,-0.00061516
-9.83999975,-4.36761800,3.35260800,3.84473400,-0.00086122
-9.75999975,-4.44451300,2.86048200,3.78321800,-0.00101501
-9.67999975,-4.49065000,2.27608300,3.72170300,-0.00107653
-9.59999974,-4.49065000,1.67630400,3.64480800,-0.00107653
-9.51999974,-4.44451300,1.07652500,3.59867100,-0.00101501
-9.43999974,-4.36761800,0.58439960,3.59867100,-0.00086122
-9.35999974,-4.22920700,0.21530510,3.66018700,-0.00061516
-9.27999974,-4.04466000,0.01537894,3.81397600,-0.00024606
-9.19999974,-3.78321800,0.03075787,4.06003900,0.00027682
-9.11999974,-3.47564000,0.26144190,4.41375400,0.00092274
-9.03999974,-3.10654500,0.67667320,4.85974400,0.00166093
-8.95999974,-2.67593500,1.24569400,5.38262700,0.00255290
-8.87999974,-2.21456700,1.90698800,5.92089000,0.00347564
-8.79999973,-1.73782000,2.58366100,6.47453200,0.00442913
-8.71999973,-1.27645200,3.19881900,6.96665800,0.00535187
-8.63999973,-0.83046260,3.67556500,7.38188900,0.00621309
-8.55999973,-0.46136810,3.96776600,7.67408900,0.00698204
-8.47999973,-0.13841040,3.99852300,7.82787800,0.00759720
-8.39999973,0.12303150,3.78321800,7.82787800,0.00805856
-8.31999973,0.30757870,3.30647100,7.67408900,0.00836614
-8.23999973,0.43061020,2.61441900,7.38188900,0.00855069
-8.15999973,0.50750490,1.75319900,6.96665800,0.00858145
-8.07999972,0.53826270,0.78432570,6.47453200,0.00851993
-7.99999972,0.53826270,-0.24606300,5.92089000,0.00836614
-7.91999972,0.50750490,-1.24569400,5.38262700,0.00821235
-7.83999972,0.43061020,-2.18380900,4.85974400,0.00805856
-7.75999972,0.30757870,-2.99889300,4.41375400,0.00793553
-7.67999972,0.12303150,-3.66018700,4.06003900,0.00784326
-7.59999972,-0.13841040,-4.13693400,3.81397600,0.00784326
-7.51999972,-0.46136810,-4.45989200,3.66018700,0.00793553
-7.43999972,-0.83046260,-4.61368100,3.59867100,0.00805856
-7.35999972,-1.27645200,-4.62906000,3.59867100,0.00821235
-7.27999971,-1.73782000,-4.56754400,3.64480800,0.00836614
-7.19999971,-2.21456700,-4.42913300,3.72170300,0.00851993
-7.11999971,-2.67593500,-4.27534400,3.78321800,0.00858145
-7.03999971,-3.10654500,-4.12155500,3.82935500,0.00855069
-6.95999971,-3.47564000,-3.99852300,3.87549200,0.00839690
-6.87999971,-3.78321800,-3.93700800,3.90625000,0.00805856
-6.79999971,-4.04466000,-3.92162900,3.93700800,0.00756644
-6.71999971,-4.22920700,-3.95238700,3.98314500,0.00688976
-6.63999971,-4.36761800,-4.01390200,4.04466000,0.00602854
-6.55999970,-4.44451300,-4.10617600,4.10617600,0.00501353
-6.47999970,-4.49065000,-4.18307100,4.18307100,0.00396777
-6.39999970,-4.49065000,-4.25996500,4.25996500,0.00286048
-6.31999970,-4.44451300,-4.29072300,4.29072300,0.00184547
-6.23999970,-4.36761800,-4.25996500,4.27534400,0.00098425
-6.15999970,-4.22920700,-4.18307100,4.19845000,0.00036909
-6.07999970,-4.04466000,-4.02928100,4.02928100,0.00003076
-5.99999970,-3.78321800,-3.79859700,3.78321800,0.00003076
-5.91999970,-3.47564000,-3.52177600,3.44488200,0.00036909
-5.83999969,-3.10654500,-3.19881900,3.01427100,0.00098425
-5.75999969,-2.67593500,-2.84510300,2.50676700,0.00184547
-5.67999969,-2.21456700,-2.44525100,1.98388300,0.00286048
-5.59999969,-1.73782000,-2.04539800,1.43024100,0.00396777
-5.51999969,-1.26107300,-1.61478800,0.92273620,0.00501353
-5.43999969,-0.83046260,-1.16879900,0.49212600,0.00602854
-5.35999969,-0.44598910,-0.70743110,0.18454720,0.00688976
-5.27999969,-0.12303150,-0.24606300,0.01537894,0.00756644
-5.19999969,0.10765260,0.24606300,0.01537894,0.00805856
-5.11999969,0.26144190,0.75356790,0.18454720,0.00839690
-5.03999968,0.33833660,1.26107300,0.49212600,0.00855069
-4.95999968,0.33833660,1.76857800,0.92273620,0.00858145
-4.87999968,0.30757870,2.27608300,1.43024100,0.00851993
-4.79999968,0.23068400,2.75283000,1.98388300,0.00836614
-4.71999968,0.16916830,3.18344000,2.50676700,0.00821235
-4.63999968,0.09227362,3.53715500,3.01427100,0.00805856
-4.55999968,0.04613681,3.78321800,3.44488200,0.00793553
-4.47999968,0.01537894,3.90625000,3.78321800,0.00787402
-4.39999968,0.00000000,3.89087100,4.02928100,0.00784326
-4.31999967,-0.01537894,3.73708200,4.19845000,0.00784326
-4.23999967,0.00000000,3.42950300,4.27534400,0.00787402
-4.15999967,0.00000000,3.01427100,4.29072300,0.00787402
-4.07999967,0.00000000,2.52214600,4.25996500,0.00790477
-3.99999967,0.00000000,1.96850400,4.18307100,0.00790477
-3.91999967,0.00000000,1.43024100,4.10617600,0.00790477
-3.83999967,0.00000000,0.92273620,4.02928100,0.00787402
-3.75999967,-0.01537894,0.49212600,3.96776600,0.00784326
-3.67999967,0.00000000,0.13841040,3.93700800,0.00784326
-3.59999966,0.01537894,-0.10765260,3.92162900,0.00784326
-3.51999966,0.04613681,-0.27682080,3.92162900,0.00784326
-3.43999966,0.09227362,-0.33833660,3.93700800,0.00787402
-3.35999966,0.16916830,-0.35371550,3.93700800,0.00790477
-3.27999966,0.23068400,-0.30757870,3.95238700,0.00790477
-3.19999966,0.30757870,-0.23068400,3.95238700,0.00790477
-3.11999966,0.33833660,-0.16916830,3.93700800,0.00790477
-3.03999966,0.33833660,-0.09227362,3.93700800,0.00787402
-2.95999966,0.26144190,-0.04613681,3.92162900,0.00784326
-2.87999966,0.10765260,-0.01537894,3.92162900,0.00784326
-2.79999965,-0.12303150,0.00000000,3.93700800,0.00784326
-2.71999965,-0.44598910,0.01537894,3.96776600,0.00784326
-2.63999965,-0.83046260,0.00000000,4.02928100,0.00787402
-2.55999965,-1.26107300,0.00000000,4.10617600,0.00790477
-2.47999965,-1.73782000,0.00000000,4.18307100,0.00790477
-2.39999965,-2.21456700,0.00000000,4.25996500,0.00790477
-2.31999965,-2.67593500,0.00000000,4.29072300,0.00790477
-2.23999965,-3.10654500,0.00000000,4.27534400,0.00787402
-2.15999965,-3.47564000,-0.01537894,4.19845000,0.00784326
-2.07999964,-3.78321800,0.00000000,4.02928100,0.00784326
-1.99999964,-4.04466000,0.01537894,3.78321800,0.00784326
-1.91999964,-4.22920700,0.04613681,3.44488200,0.00784326
-1.83999964,-4.36761800,0.09227362,3.01427100,0.00787402
-1.75999964,-4.44451300,0.16916830,2.50676700,0.00790477
-1.67999964,-4.49065000,0.23068400,1.98388300,0.00790477
-1.59999964,-4.49065000,0.30757870,1.43024100,0.00790477
-1.51999964,-4.44451300,0.33833660,0.95349410,0.00787402
-1.43999964,-4.36761800,0.33833660,0.61515740,0.00787402
-1.35999963,-4.22920700,0.26144190,0.35371550,0.00784326
-1.27999963,-4.04466000,0.10765260,0.13841040,0.00784326
-1.19999963,-3.78321800,-0.12303150,-0.15378940,0.00787402
-1.11999963,-3.47564000,-0.44598910,-0.59977850,0.00793553
-1.03999963,-3.10654500,-0.83046260,-1.21493600,0.00805856
-0.95999963,-2.67593500,-1.26107300,-1.99926200,0.00821235
-0.87999963,-2.21456700,-1.73782000,-2.82972400,0.00836614
-0.79999963,-1.73782000,-2.21456700,-3.50639700,0.00851993
-0.71999963,-1.27645200,-2.67593500,-3.58329200,0.00858145
-0.63999963,-0.83046260,-3.10654500,-2.69131400,0.00855069
-0.55999962,-0.46136810,-3.49101900,-0.73818890,0.00839690
-0.47999962,-0.13841040,-3.79859700,2.16843000,0.00805856
-0.39999962,0.12303150,-4.02928100,5.81323800,0.00756644
-0.31999962,0.30757870,-4.18307100,9.91941400,0.00688976
-0.23999962,0.43061020,-4.27534400,14.19476000,0.00602854
-0.15999962,0.50750490,-4.29072300,18.51624000,0.00501353
-0.07999962,0.53826270,-4.25996500,22.99151000,0.00396777
0.00000038,0.53826270,-4.18307100,27.92815000,0.00286048
0.08000038,0.47674700,-4.10617600,33.92593000,0.00184547
0.16000039,0.32295760,-4.02928100,41.78457000,0.00098425
0.24000039,0.15378940,-3.96776600,52.28838000,0.00033834
0.32000039,0.01537894,-3.92162900,66.17556000,0.00003076
0.40000039,0.03075787,-3.92162900,83.86134000,0.00006152
0.48000039,0.23068400,-3.96776600,105.45340000,0.00046137
0.56000039,0.67667320,-4.02928100,130.52100000,0.00116880
0.64000039,1.32258800,-4.10617600,158.14160000,0.00218381
0.72000039,2.04539800,-4.18307100,186.88480000,0.00335261
0.80000039,2.66055600,-4.25996500,214.96680000,0.00455217
0.88000039,2.72207200,-4.29072300,240.38820000,0.00572097
0.96000040,1.90698800,-4.29072300,261.14970000,0.00670522
1.04000040,0.16916830,-4.21382900,275.51360000,0.00741265
1.12000040,-2.39911400,-4.04466000,282.20350000,0.00778174
1.20000040,-5.55179600,-3.76783900,280.49640000,0.00781250
1.28000040,-8.96592000,-3.39874500,270.42320000,0.00750492
1.36000040,-12.42618000,-2.92199800,252.69130000,0.00688976
1.44000040,-15.82493000,-2.35297700,228.59250000,0.00605930
1.52000040,-19.26981000,-1.73782000,199.95690000,0.00504429
1.60000040,-23.19143000,-1.12266200,168.81460000,0.00393701
1.68000041,-28.43565000,-0.61515740,137.24160000,0.00279897
1.76000041,-35.92520000,-0.29219980,107.12970000,0.00163017
1.84000041,-46.10605000,-0.12303150,80.01660000,0.00061516
1.92000041,-59.13201000,-0.04613681,56.91744000,0.00006152
2.00000041,-74.86466000,0.06151574,38.35506000,0.00012303
2.08000041,-92.87340000,0.27682080,24.28334000,0.00101501
2.16000041,-112.55840000,0.67667320,14.22552000,0.00273745
2.24000041,-133.28920000,1.21493600,7.39726800,0.00516732
2.32000041,-154.54290000,1.79933500,2.86048200,0.00790477
2.40000042,-175.95040000,2.19918800,-0.29219980,0.01048843
2.48000042,-197.66550000,1.92236700,-2.89124000,0.01187254
2.56000042,-220.01110000,0.55364170,-5.38262700,0.01125738
2.64000042,-242.98720000,-2.01464100,-7.95091000,0.00833538
2.72000042,-266.54770000,-5.67482800,-10.53457000,0.00326034
2.80000042,-290.49270000,-10.18086000,-12.90293000,-0.00362943
2.88000042,-314.53000000,-15.17901000,-14.74840000,-0.01174951
2.96000042,-338.19820000,-20.37709000,-15.80955000,-0.02057702
3.04000042,-361.05130000,-25.65207000,-15.94796000,-0.02977362
3.12000042,-382.58180000,-31.03469000,-15.14825000,-0.03937008
3.20000043,-402.42060000,-36.92482000,-13.79491000,-0.04988927
3.28000043,-420.39860000,-44.16830000,-12.28777000,-0.06268454
3.36000043,-436.46960000,-53.70325000,-10.79601000,-0.07910925
3.44000043,-450.40290000,-66.03716000,-9.45804600,-0.10011690
3.52000043,-461.95250000,-81.40071000,-8.33538300,-0.12623030
3.60000043,-470.90300000,-99.73240000,-7.39726800,-0.15741880
3.68000043,-477.05460000,-120.63240000,-6.59756400,-0.19322100
3.76000043,-480.31490000,-143.51620000,-5.87475300,-0.23268330
3.84000043,-480.68400000,-167.63040000,-5.13656500,-0.27454480
3.92000044,-478.26950000,-192.25210000,-4.36761800,-0.31739050
4.00000044,-473.30210000,-216.78150000,-3.53715500,-0.35989790
4.08000044,-466.22780000,-241.00330000,-2.72207200,-0.40111340
4.16000044,-457.53870000,-264.87140000,-1.89160900,-0.44036050
4.24000044,-447.69620000,-288.15510000,-1.09190400,-0.47690080
4.32000044,-437.03860000,-310.70060000,-0.35371550,-0.51024230
4.40000044,-425.75050000,-332.30810000,0.32295760,-0.54004680
4.48000044,-413.93950000,-352.73130000,0.90735720,-0.56609870
4.56000044,-401.54400000,-371.75500000,1.39948300,-0.58833660
4.64000045,-388.44120000,-389.10250000,1.79933500,-0.60669900
4.72000045,-374.49250000,-404.51210000,2.10691400,-0.62115530
4.80000045,-359.42110000,-417.72270000,2.38373500,-0.63167450
4.88000045,-343.16560000,-428.67250000,2.66055600,-0.63819510
4.96000045,-326.03340000,-437.23850000,2.95275600,-0.64065580
5.04000045,-308.45530000,-443.26710000,3.30647100,-0.63884100
5.12000045,-290.96950000,-446.57350000,3.70632400,-0.63250490
5.20000045,-274.05260000,-446.98880000,4.15231300,-0.62146280
5.28000045,-258.08930000,-444.43590000,4.65981800,-0.60568400
5.36000045,-243.21790000,-438.91480000,5.18270100,-0.58529160
5.44000046,-229.39220000,-430.54870000,5.72096400,-0.56062380
5.52000046,-216.35090000,-419.59890000,6.22846900,-0.53232650
5.60000046,-203.44790000,-406.38840000,6.70521600,-0.50113800
5.68000046,-190.12980000,-391.42470000,7.13582600,-0.46804260
5.76000046,-176.30410000,-375.30760000,7.47416300,-0.43420890
5.84000046,-162.17090000,-358.60600000,7.72022600,-0.40068280
5.92000046,-148.08380000,-341.76610000,7.84325700,-0.36844860
6.00000046,-134.50420000,-325.12610000,7.81250000,-0.33812130
6.08000046,-121.80120000,-308.82440000,7.61257400,-0.31003940
6.16000047,-110.26700000,-292.89180000,7.27423700,-0.28417200
6.24000047,-99.94771000,-277.18990000,6.79749000,-0.26027310
6.32000047,-90.72034000,-261.53420000,6.22846900,-0.23785060
6.40000047,-82.04662000,-245.58620000,5.62869100,-0.21616630
6.48000047,-73.40366000,-229.14610000,5.02891200,-0.19466660
6.56000047,-64.68381000,-212.47540000,4.52140800,-0.17347440
6.64000047,-55.91781000,-195.97380000,4.15231300,-0.15308190
6.72000047,-47.32098000,-180.11810000,3.95238700,-0.13419660
6.80000047,-39.10863000,-165.38510000,3.95238700,-0.11746430
6.88000048,-31.57295000,-152.15920000,4.15231300,-0.10353100
6.96000048,-24.89850000,-140.56350000,4.52140800,-0.09258120
7.04000048,-19.14677000,-130.55180000,5.02891200,-0.08455340
7.12000048,-14.30241000,-121.84730000,5.62869100,-0.07895546
7.20000048,-10.07320000,-113.78870000,6.22846900,-0.07471088
7.28000048,-6.19771100,-105.79170000,6.79749000,-0.07071235
7.36000048,-2.66055600,-97.74852000,7.28961600,-0.06656004
7.44000048,0.43061020,-89.76685000,7.62795300,-0.06203863
7.52000048,2.93737700,-82.07738000,7.81250000,-0.05730192
7.60000048,4.69057600,-75.01846000,7.82787800,-0.05259597
7.68000049,5.56717500,-68.88226000,7.67408900,-0.04828986
7.76000049,5.50565900,-63.85334000,7.38188900,-0.04466043
7.84000049,4.55216500,-59.96247000,6.96665800,-0.04186147
7.92000049,2.86048200,-57.04047000,6.47453200,-0.03989296
8.00000049,0.75356790,-54.65674000,5.92089000,-0.03838583
8.08000049,-1.46099900,-52.27300000,5.38262700,-0.03694021
8.16000049,-3.58329200,-49.76624000,4.87512300,-0.03543307
8.24000049,-5.50565900,-47.12106000,4.42913300,-0.03383366
8.32000049,-7.15120500,-44.44513000,4.06003900,-0.03220350
8.40000050,-8.47379300,-41.92298000,3.79859700,-0.03060408
8.48000050,-9.51956200,-39.75455000,3.61405000,-0.02915846
8.56000050,-10.33464000,-38.06287000,3.50639700,-0.02792815
8.64000050,-10.99594000,-36.89407000,3.42950300,-0.02700541
8.72000050,-11.58034000,-36.15588000,3.41412400,-0.02632874
8.80000050,-12.13398000,-35.52534000,3.41412400,-0.02577510
8.88000050,-12.70300000,-34.66412000,3.42950300,-0.02522146
8.96000050,-13.36430000,-33.34153000,3.49101900,-0.02469857
9.04000050,-14.16400000,-31.44992000,3.59867100,-0.02420645
9.12000051,-15.14825000,-28.92778000,3.79859700,-0.02374508
9.20000051,-16.27091000,-25.85199000,4.07541800,-0.02334523
9.28000051,-17.53199000,-22.31484000,4.47527100,-0.02309916
9.36000051,-18.88533000,-18.43934000,4.96739600,-0.02297613
9.44000051,-20.26944000,-14.37930000,5.53641700,-0.02300689
9.52000051,-21.63816000,-10.25775000,6.16695300,-0.02309916
9.60000051,-22.92999000,-6.09005900,6.78211100,-0.02325295
9.68000051,-24.12955000,-1.93774600,7.32037400,-0.02334523
9.76000051,-25.22145000,2.16843000,7.72022600,-0.02340674
9.84000051,-26.19033000,6.13619500,7.93553100,-0.02343750
9.92000052,-27.06693000,9.95017100,7.93553100,-0.02349902
10.00000052,-27.83587000,13.53346000,7.68946800,-0.02359129
10.08000052,-28.51255000,16.87069000,7.18196300,-0.02374508
10.16000052,-29.11233000,19.94648000,6.45915300,-0.02402190
10.24000052,-29.61983000,22.74545000,5.53641700,-0.02432948
10.32000052,-30.00430000,25.25221000,4.49065000,-0.02466781
10.40000052,-30.20423000,27.42064000,3.41412400,-0.02494464
10.48000052,-30.15809000,29.23536000,2.35297700,-0.02503691
10.56000052,-29.81976000,30.60408000,1.41486200,-0.02491388
10.64000053,-29.14308000,31.40379000,0.67667320,-0.02454478
10.72000053,-28.11270000,31.55758000,0.15378940,-0.02392963
10.80000053,-26.72859000,31.01931000,-0.09227362,-0.02309916
10.88000053,-25.02153000,29.77362000,-0.09227362,-0.02205340
10.96000053,-23.02227000,27.86663000,0.15378940,-0.02085384
11.04000053,-20.80770000,25.35987000,0.58439960,-0.01956201
11.12000053,-18.42397000,22.39173000,1.12266200,-0.01817790
11.20000053,-15.90182000,19.13140000,1.73782000,-0.01667077
11.28000053,-13.27202000,15.70189000,2.35297700,-0.01504060
11.36000053,-10.58071000,12.21087000,2.92199800,-0.01319513
11.44000054,-7.87401500,8.79675100,3.39874500,-0.01119587
