Time,Channel A,Channel B,Channel C,Channel D
(ns),(mV),(mV),(mV),(V)

-15.25517283,-0.12303150,-3.92162900,0.01537894,0.00784326
-15.17517282,-0.43061020,-3.96776600,0.18454720,0.00784326
-15.09517282,-0.83046260,-4.02928100,0.49212600,0.00787402
-15.01517282,-1.26107300,-4.10617600,0.92273620,0.00790477
-14.93517282,-1.73782000,-4.18307100,1.43024100,0.00790477
-14.85517282,-2.21456700,-4.25996500,1.98388300,0.00790477
-14.77517282,-2.67593500,-4.29072300,2.50676700,0.00790477
-14.69517282,-3.10654500,-4.27534400,3.01427100,0.00787402
-14.61517282,-3.47564000,-4.19845000,3.44488200,0.00784326
-14.53517282,-3.78321800,-4.02928100,3.78321800,0.00784326
-14.45517281,-4.04466000,-3.78321800,4.02928100,0.00784326
-14.37517281,-4.22920700,-3.44488200,4.19845000,0.00784326
-14.29517281,-4.36761800,-3.01427100,4.27534400,0.00787402
-14.21517281,-4.44451300,-2.50676700,4.29072300,0.00790477
-14.13517281,-4.49065000,-1.98388300,4.25996500,0.00790477
-14.05517281,-4.49065000,-1.43024100,4.18307100,0.00790477
-13.97517281,-4.45989200,-0.92273620,4.10617600,0.00790477
-13.89517281,-4.36761800,-0.49212600,4.02928100,0.00787402
-13.81517281,-4.24458600,-0.16916830,3.96776600,0.00784326
-13.73517280,-4.04466000,-0.01537894,3.93700800,0.00784326
-13.65517280,-3.78321800,-0.03075787,3.92162900,0.00784326
-13.57517280,-3.42950300,-0.23068400,3.92162900,0.00784326
-13.49517280,-2.99889300,-0.58439960,3.93700800,0.00787402
-13.41517280,-2.50676700,-1.09190400,3.93700800,0.00790477
-13.33517280,-1.98388300,-1.67630400,3.95238700,0.00790477
-13.25517280,-1.43024100,-2.27608300,3.95238700,0.00790477
-13.17517280,-0.92273620,-2.86048200,3.95238700,0.00790477
-13.09517280,-0.49212600,-3.35260800,3.93700800,0.00787402
-13.01517280,-0.16916830,-3.72170300,3.92162900,0.00784326
-12.93517279,-0.01537894,-3.90625000,3.92162900,0.00784326
-12.85517279,-0.03075787,-3.89087100,3.92162900,0.00784326
-12.77517279,-0.23068400,-3.66018700,3.92162900,0.00784326
-12.69517279,-0.58439960,-3.26033400,3.93700800,0.00787402
-12.61517279,-1.09190400,-2.69131400,3.95238700,0.00790477
-12.53517279,-1.67630400,-2.04539800,3.95238700,0.00790477
-12.45517279,-2.27608300,-1.36872500,3.95238700,0.00790477
-12.37517279,-2.86048200,-0.73818890,3.95238700,0.00790477
-12.29517279,-3.35260800,-0.24606300,3.93700800,0.00787402
-12.21517278,-3.70632400,0.04613681,3.92162900,0.00784326
-12.13517278,-3.89087100,0.07689468,3.92162900,0.00784326
-12.05517278,-3.90625000,-0.15378940,3.92162900,0.00784326
-11.97517278,-3.75246000,-0.66129420,3.92162900,0.00784326
-11.89517278,-3.44488200,-1.41486200,3.93700800,0.00787402
-11.81517278,-3.02965000,-2.35297700,3.95238700,0.00790477
-11.73517278,-2.52214600,-3.41412400,3.95238700,0.00790477
-11.65517278,-1.96850400,-4.49065000,3.95238700,0.00790477
-11.57517278,-1.43024100,-5.53641700,3.95238700,0.00790477
-11.49517277,-0.92273620,-6.45915300,3.93700800,0.00787402
-11.41517277,-0.49212600,-7.18196300,3.92162900,0.00784326
-11.33517277,-0.13841040,-7.68946800,3.92162900,0.00784326
-11.25517277,0.10765260,-7.93553100,3.92162900,0.00784326
-11.17517277,0.27682080,-7.93553100,3.92162900,0.00784326
-11.09517277,0.33833660,-7.72022600,3.93700800,0.00787402
-11.01517277,0.35371550,-7.32037400,3.95238700,0.00790477
-10.93517277,0.30757870,-6.78211100,3.95238700,0.00790477
-10.85517277,0.23068400,-6.16695300,3.95238700,0.00790477
-10.77517277,0.16916830,-5.53641700,3.95238700,0.00787402
-10.69517276,0.09227362,-4.95201700,3.93700800,0.00787402
-10.61517276,0.04613681,-4.45989200,3.92162900,0.00784326
-10.53517276,0.01537894,-4.07541800,3.92162900,0.00784326
-10.45517276,0.00000000,-3.79859700,3.92162900,0.00787402
-10.37517276,-0.01537894,-3.64480800,3.92162900,0.00793553
-10.29517276,0.00000000,-3.58329200,3.93700800,0.00805856
-10.21517276,0.00000000,-3.59867100,3.95238700,0.00821235
-10.13517276,0.00000000,-3.64480800,3.95238700,0.00836614
-10.05517276,0.00000000,-3.72170300,3.95238700,0.00851993
-9.97517275,0.00000000,-3.78321800,3.95238700,0.00858145
-9.89517275,0.00000000,-3.84473400,3.93700800,0.00855069
-9.81517275,0.00000000,-3.89087100,3.92162900,0.00839690
-9.73517275,0.00000000,-3.90625000,3.92162900,0.00805856
-9.65517275,0.00000000,-3.92162900,3.92162900,0.00756644
-9.57517275,0.00000000,-3.93700800,3.92162900,0.00688976
-9.49517275,0.00000000,-3.93700800,3.93700800,0.00602854
-9.41517275,0.00000000,-3.95238700,3.95238700,0.00501353
-9.33517275,0.00000000,-3.95238700,3.95238700,0.00396777
-9.25517274,0.00000000,-3.95238700,3.95238700,0.00286048
-9.17517274,0.00000000,-3.93700800,3.95238700,0.00184547
-9.09517274,0.00000000,-3.93700800,3.93700800,0.00101501
-9.01517274,0.00000000,-3.92162900,3.92162900,0.00039985
-8.93517274,0.00000000,-3.92162900,3.92162900,0.00006152
-8.85517274,0.00000000,-3.93700800,3.92162900,0.00003076
-8.77517274,0.00000000,-3.96776600,3.92162900,0.00027682
-8.69517274,0.00000000,-4.02928100,3.93700800,0.00079970
-8.61517274,0.00000000,-4.10617600,3.95238700,0.00153789
-8.53517274,0.00000000,-4.18307100,3.95238700,0.00239911
-8.45517273,0.00000000,-4.25996500,3.95238700,0.00335261
-8.37517273,0.00000000,-4.29072300,3.95238700,0.00433686
-8.29517273,0.00000000,-4.27534400,3.93700800,0.00535187
-8.21517273,0.00000000,-4.18307100,3.92162900,0.00633612
-8.13517273,0.00000000,-4.02928100,3.92162900,0.00735113
-8.05517273,0.00000000,-3.79859700,3.92162900,0.00833538
-7.97517273,0.00000000,-3.49101900,3.92162900,0.00938115
-7.89517273,0.00000000,-3.10654500,3.93700800,0.01039616
-7.81517273,0.00000000,-2.67593500,3.95238700,0.01144193
-7.73517272,0.00000000,-2.21456700,3.95238700,0.01245694
-7.65517272,0.00000000,-1.73782000,3.95238700,0.01341043
-7.57517272,0.00000000,-1.26107300,3.95238700,0.01427165
-7.49517272,0.00000000,-0.83046260,3.93700800,0.01494833
-7.41517272,0.00000000,-0.44598910,3.92162900,0.01544045
-7.33517272,0.00000000,-0.12303150,3.92162900,0.01565576
-7.25517272,0.00000000,0.10765260,3.92162900,0.01562500
-7.17517272,0.00000000,0.26144190,3.92162900,0.01531742
-7.09517272,0.00000000,0.33833660,3.93700800,0.01473302
-7.01517272,0.00000000,0.33833660,3.95238700,0.01393332
-6.93517271,0.00000000,0.30757870,3.95238700,0.01294907
-6.85517271,0.00000000,0.23068400,3.95238700,0.01184178
-6.77517271,0.00000000,0.16916830,3.95238700,0.01076526
-6.69517271,0.00000000,0.09227362,3.93700800,0.00971949
-6.61517271,0.00000000,0.04613681,3.92162900,0.00882751
-6.53517271,0.00000000,0.01537894,3.92162900,0.00812008
-6.45517271,0.00000000,0.00000000,3.92162900,0.00762795
-6.37517271,0.00000000,-0.01537894,3.92162900,0.00732037
-6.29517271,0.00000000,0.00000000,3.93700800,0.00719734
-6.21517270,0.00000000,0.00000000,3.95238700,0.00719734
-6.13517270,0.00000000,0.00000000,3.95238700,0.00728962
-6.05517270,0.00000000,0.00000000,3.95238700,0.00744341
-5.97517270,0.00000000,0.00000000,3.95238700,0.00756644
-5.89517270,0.00000000,0.00000000,3.93700800,0.00768947
-5.81517270,0.00000000,-0.01537894,3.92162900,0.00778174
-5.73517270,0.00000000,0.00000000,3.92162900,0.00781250
-5.65517270,0.00000000,0.01537894,3.92162900,0.00784326
-5.57517270,0.00000000,0.04613681,3.92162900,0.00787402
-5.49517269,0.00000000,0.09227362,3.93700800,0.00787402
-5.41517269,0.00000000,0.16916830,3.95238700,0.00790477
-5.33517269,0.00000000,0.23068400,3.95238700,0.00790477
-5.25517269,0.00000000,0.30757870,3.95238700,0.00790477
-5.17517269,0.00000000,0.33833660,3.95238700,0.00787402
-5.09517269,0.00000000,0.32295760,3.93700800,0.00787402
-5.01517269,0.00000000,0.24606300,3.92162900,0.00784326
-4.93517269,0.00000000,0.10765260,3.92162900,0.00784326
-4.85517269,0.00000000,-0.12303150,3.92162900,0.00787402
-4.77517269,0.00000000,-0.39985230,3.92162900,0.00793553
-4.69517268,0.00000000,-0.73818890,3.93700800,0.00805856
-4.61517268,0.00000000,-1.10728300,3.95238700,0.00821235
-4.53517268,0.00000000,-1.50713600,3.95238700,0.00836614
-4.45517268,0.00000000,-1.90698800,3.95238700,0.00851993
-4.37517268,0.00000000,-2.32221900,3.95238700,0.00858145
-4.29517268,0.00000000,-2.75283000,3.93700800,0.00855069
-4.21517268,0.00000000,-3.19881900,3.92162900,0.00839690
-4.13517268,0.00000000,-3.67556500,3.92162900,0.00805856
-4.05517268,0.00000000,-4.18307100,3.92162900,0.00756644
-3.97517267,0.00000000,-4.72133400,3.92162900,0.00688976
-3.89517267,0.00000000,-5.29035400,3.93700800,0.00602854
-3.81517267,0.00000000,-5.89013200,3.95238700,0.00501353
-3.73517267,0.00000000,-6.47453200,3.95238700,0.00396777
-3.65517267,0.00000000,-7.01279500,3.95238700,0.00286048
-3.57517267,0.00000000,-7.47416300,3.95238700,0.00184547
-3.49517267,0.00000000,-7.81250000,3.93700800,0.00098425
-3.41517267,0.01537894,-7.98166800,3.92162900,0.00036909
-3.33517267,0.00000000,-7.93553100,3.92162900,0.00003076
-3.25517266,-0.01537894,-7.68946800,3.92162900,0.00003076
-3.17517266,-0.04613681,-7.21272100,3.92162900,0.00036909
-3.09517266,-0.09227362,-6.53604800,3.93700800,0.00098425
-3.01517266,-0.16916830,-5.69020700,3.95238700,0.00184547
-2.93517266,-0.23068400,-4.73671200,3.95238700,0.00286048
-2.85517266,-0.30757870,-3.70632400,3.95238700,0.00396777
-2.77517266,-0.35371550,-2.70669300,3.95238700,0.00501353
-2.69517266,-0.35371550,-1.75319900,3.93700800,0.00599779
-2.61517266,-0.27682080,-0.93811510,3.92162900,0.00685901
-2.53517266,-0.12303150,-0.26144190,3.92162900,0.00756644
-2.45517265,0.15378940,0.21530510,3.92162900,0.00808932
-2.37517265,0.53826270,0.53826270,3.92162900,0.00848917
-2.29517265,1.01501000,0.67667320,3.93700800,0.00873524
-2.21517265,1.59940900,0.69205210,3.95238700,0.00891978
-2.13517265,2.21456700,0.61515740,3.95238700,0.00898130
-2.05517265,2.82972400,0.47674700,3.95238700,0.00898130
-1.97517265,3.36798700,0.32295760,3.95238700,0.00891978
-1.89517265,3.78321800,0.18454720,3.96776600,0.00873524
-1.81517265,3.99852300,0.07689468,3.98314500,0.00848917
-1.73517264,4.01390200,0.01537894,3.95238700,0.00808932
-1.65517264,3.76783900,0.00000000,3.87549200,0.00756644
-1.57517264,3.30647100,0.03075787,3.70632400,0.00685901
-1.49517264,2.61441900,0.07689468,3.46026100,0.00599779
-1.41517264,1.75319900,0.15378940,3.13730300,0.00501353
-1.33517264,0.78432570,0.23068400,2.76820900,0.00396777
-1.25517264,-0.24606300,0.30757870,2.42987200,0.00286048
-1.17517264,-1.24569400,0.35371550,2.33759800,0.00184547
-1.09517264,-2.18380900,0.33833660,2.62979800,0.00098425
-1.01517263,-2.99889300,0.27682080,3.18344000,0.00036909
-0.93517263,-3.66018700,0.10765260,3.73708200,0.00003076
-0.85517263,-4.13693400,-0.13841040,3.98314500,0.00003076
-0.77517263,-4.45989200,-0.49212600,3.64480800,0.00036909
-0.69517263,-4.61368100,-0.92273620,2.58366100,0.00098425
-0.61517263,-4.62906000,-1.43024100,0.87659940,0.00184547
-0.53517263,-4.56754400,-1.96850400,-1.09190400,0.00286048
-0.45517263,-4.42913300,-2.52214600,-2.62979800,0.00396777
-0.37517263,-4.27534400,-3.02965000,-2.70669300,0.00501353
-0.29517263,-4.16769200,-3.44488200,-0.21530510,0.00602854
-0.21517262,-4.07541800,-3.75246000,5.90551100,0.00688976
-0.13517262,-3.98314500,-3.90625000,16.44008000,0.00756644
-0.05517262,-3.84473400,-3.89087100,31.86516000,0.00805856
0.02482738,-3.64480800,-3.70632400,52.16535000,0.00839690
0.10482738,-3.35260800,-3.35260800,76.77165000,0.00855069
0.18482738,-2.96813500,-2.86048200,104.65370000,0.00858145
0.26482738,-2.53752400,-2.27608300,134.31960000,0.00851993
0.34482738,-2.12229300,-1.67630400,163.97020000,0.00836614
0.42482738,-1.96850400,-1.09190400,191.72920000,0.00821235
0.50482739,-2.19918800,-0.58439960,215.79720000,0.00805856
0.58482739,-2.76820900,-0.23068400,234.66720000,0.00793553
0.66482739,-3.53715500,-0.03075787,247.26250000,0.00784326
0.74482739,-4.27534400,-0.01537894,253.07580000,0.00784326
0.82482739,-4.78284900,-0.16916830,252.15300000,0.00793553
0.90482739,-4.93663800,-0.49212600,245.04800000,0.00805856
0.98482739,-4.73671200,-0.92273620,232.77560000,0.00821235
1.06482739,-4.42913300,-1.43024100,216.62770000,0.00836614
1.14482739,-4.45989200,-1.98388300,198.00380000,0.00851993
1.22482739,-5.65944900,-2.53752400,178.21110000,0.00855069
1.30482740,-8.85826700,-3.07578700,158.41840000,0.00842766
1.38482740,-14.44082000,-3.52177600,139.48690000,0.00821235
1.46482740,-22.53014000,-3.84473400,121.93960000,0.00796629
1.54482740,-32.92630000,-3.95238700,105.96090000,0.00775098
1.62482740,-45.22945000,-3.81397600,91.52005000,0.00765871
1.70482740,-58.93208000,-3.42950300,78.34030000,0.00772023
1.78482740,-73.55746000,-2.82972400,66.11405000,0.00796629
1.86482740,-88.75184000,-2.12229300,54.51833000,0.00821235
1.94482740,-104.43840000,-1.44562000,43.32246000,0.00833538
2.02482741,-121.06300000,-1.10728300,32.49569000,0.00787402
2.10482741,-139.19470000,-1.32258800,22.13029000,0.00645915
2.18482741,-159.06430000,-2.09153500,12.47232000,0.00421383
2.26482741,-180.73320000,-3.26033400,3.82935500,0.00144562
2.34482741,-204.04770000,-4.58292300,-3.47564000,-0.00138410
2.42482741,-228.65400000,-5.79785900,-9.21198300,-0.00384473
2.50482741,-254.04460000,-6.75135300,-13.30278000,-0.00559793
2.58482741,-279.57370000,-7.41264700,-15.80955000,-0.00670522
2.66482741,-304.62600000,-7.99704600,-16.96297000,-0.00756644
2.74482742,-328.67860000,-8.96592000,-17.23979000,-0.00913509
2.82482742,-351.54710000,-11.25738000,-17.13213000,-0.01297982
2.90482742,-373.13910000,-15.76341000,-16.85531000,-0.02079232
2.98482742,-393.16250000,-22.99151000,-16.48622000,-0.03352608
3.06482742,-411.37120000,-33.11085000,-16.00947000,-0.05167323
3.14482742,-427.47290000,-45.99840000,-15.30204000,-0.07514149
3.22482742,-441.22170000,-61.28506000,-14.25627000,-0.10334650
3.30482742,-452.44830000,-78.41719000,-12.74914000,-0.13533460
3.38482742,-461.04510000,-96.76427000,-10.76525000,-0.16987570
3.46482742,-466.98140000,-115.81880000,-8.33538300,-0.20589320
3.54482743,-470.41090000,-135.24240000,-5.69020700,-0.24240280
3.62482743,-471.62580000,-155.18880000,-3.04502900,-0.27912770
3.70482743,-471.02610000,-175.91970000,-0.58439960,-0.31603710
3.78482743,-468.82690000,-197.51170000,1.53789400,-0.35291590
3.86482743,-465.18210000,-219.93420000,3.24495600,-0.38967150
3.94482743,-460.15310000,-243.04870000,4.47527100,-0.42608880
4.02482743,-453.67860000,-266.59390000,5.22883800,-0.46198330
4.10482743,-445.68160000,-290.16980000,5.53641700,-0.49686270
4.18482743,-436.06970000,-313.26900000,5.50565900,-0.53023500
4.26482744,-424.82770000,-335.36850000,5.24421700,-0.56133120
4.34482744,-411.87870000,-356.02240000,4.82898600,-0.58941320
4.42482744,-397.39170000,-374.90770000,4.41375400,-0.61368110
4.50482744,-381.81280000,-391.83990000,4.07541800,-0.63351990
4.58482744,-365.60350000,-406.49600000,3.87549200,-0.64812990
4.66482744,-349.30180000,-418.59920000,3.86011300,-0.65689590
4.74482744,-333.30770000,-427.93430000,4.02928100,-0.65944880
4.82482744,-317.91340000,-434.37810000,4.36761800,-0.65563480
4.90482744,-303.19570000,-437.85370000,4.82898600,-0.64566930
4.98482745,-289.06250000,-438.45350000,5.36724900,-0.63010580
5.06482745,-275.23680000,-436.28500000,5.92089000,-0.60965180
5.14482745,-261.18050000,-431.59450000,6.47453200,-0.58526080
5.22482745,-246.46280000,-424.72010000,6.96665800,-0.55807080
5.30482745,-231.11470000,-416.06170000,7.38188900,-0.52915850
5.38482745,-215.41280000,-405.91160000,7.67408900,-0.49947710
5.46482745,-199.81850000,-394.48510000,7.82787800,-0.46973430
5.54482745,-184.77790000,-381.87440000,7.82787800,-0.44039120
5.62482745,-170.72160000,-368.15630000,7.67408900,-0.41157110
5.70482745,-157.86480000,-353.31570000,7.38188900,-0.38330460
5.78482746,-146.26910000,-337.39850000,6.96665800,-0.35537650
5.86482746,-135.71910000,-320.43550000,6.47453200,-0.32760210
5.94482746,-125.61510000,-302.44210000,5.92089000,-0.29967400
6.02482746,-115.38820000,-283.64910000,5.38262700,-0.27146900
6.10482746,-104.89970000,-264.57920000,4.85974400,-0.24360240
6.18482746,-94.22675000,-245.84770000,4.41375400,-0.21678150
6.26482746,-83.63065000,-228.03890000,4.06003900,-0.19189840
6.34482746,-73.40366000,-211.67570000,3.81397600,-0.16972190
6.42482746,-63.85334000,-197.05030000,3.66018700,-0.15086740
6.50482747,-55.22576000,-184.23970000,3.59867100,-0.13542690
6.58482747,-47.59781000,-173.07460000,3.59867100,-0.12327760
6.66482747,-40.90797000,-163.12440000,3.64480800,-0.11374260
6.74482747,-34.83329000,-153.71250000,3.72170300,-0.10565330
6.82482747,-29.05081000,-144.16210000,3.78321800,-0.09793307
6.90482747,-23.52977000,-134.38110000,3.84473400,-0.09012057
6.98482747,-18.37783000,-124.43100000,3.89087100,-0.08218504
7.06482747,-13.79491000,-114.58850000,3.90625000,-0.07434178
7.14482747,-9.96555000,-105.23810000,3.92162900,-0.06705216
7.22482748,-7.05893100,-96.70275000,3.93700800,-0.06071604
7.30482748,-5.18270100,-89.21321000,3.93700800,-0.05564100
7.38482748,-4.29072300,-82.86171000,3.95238700,-0.05201156
7.46482748,-4.22920700,-77.49446000,3.95238700,-0.04967397
7.54482748,-4.70595500,-72.65009000,3.95238700,-0.04801304
7.62482748,-5.36724900,-67.82111000,3.95238700,-0.04644439
7.70482748,-6.09005900,-62.93060000,3.93700800,-0.04472195
7.78482748,-6.79749000,-58.00935000,3.92162900,-0.04272269
7.86482748,-7.48954200,-53.24187000,3.92162900,-0.04044661
7.94482748,-8.21235200,-48.87426000,3.92162900,-0.03798597
8.02482749,-9.04281500,-45.10642000,3.92162900,-0.03552534
8.10482749,-10.04245000,-42.09215000,3.93700800,-0.03315699
8.18482749,-11.22662000,-39.86220000,3.95238700,-0.03103469
8.26482749,-12.57997000,-38.27817000,3.95238700,-0.02918922
8.34482749,-14.01021000,-36.97096000,3.95238700,-0.02755906
8.42482749,-15.40969000,-35.54072000,3.95238700,-0.02605192
8.50482749,-16.76304000,-33.75676000,3.93700800,-0.02482160
8.58482749,-18.00873000,-31.52682000,3.92162900,-0.02392963
8.66482749,-19.11602000,-28.89702000,3.92162900,-0.02352977
8.74482750,-20.06951000,-25.94427000,3.92162900,-0.02371432
8.82482750,-20.83846000,-22.82234000,3.92162900,-0.02454478
8.90482750,-21.42286000,-19.65428000,3.93700800,-0.02602116
8.98482750,-21.86885000,-16.56311000,3.95238700,-0.02802042
9.06482750,-22.17643000,-13.59498000,3.95238700,-0.03038878
9.14482750,-22.37635000,-10.65760000,3.95238700,-0.03284941
9.22482750,-22.54552000,-7.64333200,3.95238700,-0.03509473
9.30482750,-22.71469000,-4.52140800,3.93700800,-0.03697097
9.38482750,-22.96075000,-1.24569400,3.93700800,-0.03832431
9.46482751,-23.31447000,2.16843000,3.92162900,-0.03906250
9.54482751,-23.79121000,5.69020700,3.90625000,-0.03921629
9.62482751,-24.42175000,9.28887700,3.89087100,-0.03884719
9.70482751,-25.14456000,12.87217000,3.84473400,-0.03798597
9.78482751,-25.92889000,16.37857000,3.78321800,-0.03672490
9.86482751,-26.69783000,19.73118000,3.72170300,-0.03521777
9.94482751,-27.37451000,22.86848000,3.64480800,-0.03343381
10.02482751,-27.88201000,25.68282000,3.59867100,-0.03146530
10.10482751,-28.12807000,28.06656000,3.59867100,-0.02931225
10.18482751,-28.08194000,29.89665000,3.66018700,-0.02706693
10.26482752,-27.74360000,31.06545000,3.81397600,-0.02472933
10.34482752,-27.09768000,31.51144000,4.06003900,-0.02233022
10.42482752,-26.19033000,31.25000000,4.41375400,-0.01990034
10.50482752,-25.03691000,30.29650000,4.85974400,-0.01747047
10.58482752,-23.69894000,28.75861000,5.38262700,-0.01500984
10.66482752,-22.20718000,26.71321000,5.92089000,-0.01254921
10.74482752,-20.56164000,24.32948000,6.47453200,-0.01008858
10.82482752,-18.79306000,21.71506000,6.96665800,-0.00765871
10.90482752,-16.87069000,18.94685000,7.38188900,-0.00525960
10.98482753,-14.87143000,16.08637000,7.67408900,-0.00298351
11.06482753,-12.81065000,13.21051000,7.82787800,-0.00092274
11.14482753,-10.73450000,10.33464000,7.82787800,0.00083046
11.22482753,-8.68909800,7.47416300,7.67408900,0.00224533
11.30482753,-6.68983700,4.65981800,7.38188900,0.00326034
11.38482753,-4.76747000,1.87623000,6.96665800,0.00393701
11.46482753,-2.89124000,-0.87659940,6.47453200,0.00436762
11.54482753,-1.06114600,-3.61405000,5.92089000,0.00464444
11.62482753,0.81508360,-6.33612200,5.38262700,0.00495202
11.70482753,2.73745100,-9.05819300,4.85974400,0.00541339
11.78482754,4.73671200,-11.74951000,4.41375400,0.00615158
