Time,Channel A,Channel B,Channel C,Channel D
(ns),(mV),(mV),(mV),(V)

-15.51304383,0.00000000,-3.92162900,3.66018700,0.00784326
-15.43304382,0.00000000,-3.93700800,3.12192400,0.00793553
-15.35304382,0.00000000,-3.93700800,2.56828200,0.00805856
-15.27304382,0.00000000,-3.95238700,1.99926200,0.00821235
-15.19304382,0.00000000,-3.95238700,1.43024100,0.00836614
-15.11304382,0.00000000,-3.95238700,0.89197830,0.00851993
-15.03304382,0.00000000,-3.95238700,0.41523130,0.00858145
-14.95304382,0.00000000,-3.93700800,0.06151574,0.00855069
-14.87304382,-0.01537894,-3.92162900,-0.12303150,0.00836614
-14.79304382,0.00000000,-3.92162900,-0.10765260,0.00805856
-14.71304381,0.01537894,-3.92162900,0.16916830,0.00759720
-14.63304381,0.04613681,-3.92162900,0.67667320,0.00698204
-14.55304381,0.09227362,-3.93700800,1.43024100,0.00621309
-14.47304381,0.16916830,-3.95238700,2.35297700,0.00535187
-14.39304381,0.23068400,-3.95238700,3.41412400,0.00442913
-14.31304381,0.30757870,-3.95238700,4.49065000,0.00347564
-14.23304381,0.35371550,-3.95238700,5.53641700,0.00255290
-14.15304381,0.33833660,-3.93700800,6.45915300,0.00166093
-14.07304381,0.27682080,-3.92162900,7.18196300,0.00092274
-13.99304380,0.10765260,-3.92162900,7.68946800,0.00027682
-13.91304380,-0.13841040,-3.92162900,7.93553100,-0.00024606
-13.83304380,-0.49212600,-3.92162900,7.93553100,-0.00061516
-13.75304380,-0.92273620,-3.93700800,7.72022600,-0.00086122
-13.67304380,-1.43024100,-3.95238700,7.32037400,-0.00101501
-13.59304380,-1.96850400,-3.95238700,6.78211100,-0.00107653
-13.51304380,-2.52214600,-3.95238700,6.16695300,-0.00107653
-13.43304380,-3.01427100,-3.95238700,5.53641700,-0.00101501
-13.35304380,-3.42950300,-3.93700800,4.95201700,-0.00086122
-13.27304380,-3.73708200,-3.92162900,4.45989200,-0.00061516
-13.19304379,-3.89087100,-3.92162900,4.07541800,-0.00024606
-13.11304379,-3.90625000,-3.92162900,3.79859700,0.00027682
-13.03304379,-3.78321800,-3.92162900,3.64480800,0.00092274
-12.95304379,-3.53715500,-3.93700800,3.58329200,0.00166093
-12.87304379,-3.18344000,-3.95238700,3.59867100,0.00255290
-12.79304379,-2.75283000,-3.95238700,3.64480800,0.00347564
-12.71304379,-2.27608300,-3.95238700,3.72170300,0.00442913
-12.63304379,-1.78395700,-3.95238700,3.78321800,0.00535187
-12.55304379,-1.26107300,-3.93700800,3.84473400,0.00621309
-12.47304378,-0.75356790,-3.92162900,3.89087100,0.00698204
-12.39304378,-0.24606300,-3.92162900,3.90625000,0.00759720
-12.31304378,0.24606300,-3.92162900,3.92162900,0.00805856
-12.23304378,0.75356790,-3.92162900,3.93700800,0.00836614
-12.15304378,1.26107300,-3.93700800,3.93700800,0.00855069
-12.07304378,1.78395700,-3.95238700,3.95238700,0.00858145
-11.99304378,2.27608300,-3.95238700,3.95238700,0.00851993
-11.91304378,2.75283000,-3.95238700,3.95238700,0.00836614
-11.83304378,3.18344000,-3.95238700,3.95238700,0.00821235
-11.75304377,3.53715500,-3.93700800,3.93700800,0.00805856
-11.67304377,3.79859700,-3.92162900,3.92162900,0.00793553
-11.59304377,3.92162900,-3.92162900,3.92162900,0.00784326
-11.51304377,3.89087100,-3.92162900,3.92162900,0.00784326
-11.43304377,3.69094500,-3.92162900,3.92162900,0.00793553
-11.35304377,3.33722900,-3.93700800,3.93700800,0.00805856
-11.27304377,2.86048200,-3.95238700,3.95238700,0.00821235
-11.19304377,2.27608300,-3.95238700,3.95238700,0.00836614
-11.11304377,1.67630400,-3.95238700,3.95238700,0.00851993
-11.03304377,1.07652500,-3.95238700,3.95238700,0.00858145
-10.95304376,0.58439960,-3.93700800,3.93700800,0.00855069
-10.87304376,0.21530510,-3.92162900,3.93700800,0.00839690
-10.79304376,0.01537894,-3.92162900,3.92162900,0.00805856
-10.71304376,0.03075787,-3.92162900,3.90625000,0.00756644
-10.63304376,0.26144190,-3.92162900,3.89087100,0.00688976
-10.55304376,0.67667320,-3.93700800,3.84473400,0.00602854
-10.47304376,1.24569400,-3.95238700,3.78321800,0.00501353
-10.39304376,1.90698800,-3.95238700,3.72170300,0.00396777
-10.31304376,2.58366100,-3.95238700,3.64480800,0.00286048
-10.23304375,3.19881900,-3.95238700,3.59867100,0.00184547
-10.15304375,3.69094500,-3.93700800,3.58329200,0.00098425
-10.07304375,3.96776600,-3.92162900,3.64480800,0.00036909
-9.99304375,3.99852300,-3.92162900,3.79859700,0.00003076
-9.91304375,3.76783900,-3.92162900,4.07541800,0.00003076
-9.83304375,3.26033400,-3.92162900,4.45989200,0.00036909
-9.75304375,2.52214600,-3.93700800,4.95201700,0.00098425
-9.67304375,1.59940900,-3.95238700,5.53641700,0.00184547
-9.59304375,0.53826270,-3.95238700,6.16695300,0.00286048
-9.51304374,-0.53826270,-3.95238700,6.78211100,0.00396777
-9.43304374,-1.59940900,-3.95238700,7.32037400,0.00501353
-9.35304374,-2.52214600,-3.93700800,7.72022600,0.00602854
-9.27304374,-3.26033400,-3.92162900,7.93553100,0.00688976
-9.19304374,-3.76783900,-3.92162900,7.93553100,0.00756644
-9.11304374,-3.99852300,-3.92162900,7.68946800,0.00805856
-9.03304374,-3.96776600,-3.92162900,7.18196300,0.00839690
-8.95304374,-3.69094500,-3.93700800,6.45915300,0.00855069
-8.87304374,-3.19881900,-3.95238700,5.53641700,0.00858145
-8.79304374,-2.58366100,-3.95238700,4.49065000,0.00851993
-8.71304373,-1.90698800,-3.95238700,3.41412400,0.00836614
-8.63304373,-1.24569400,-3.93700800,2.35297700,0.00821235
-8.55304373,-0.69205210,-3.93700800,1.41486200,0.00805856
-8.47304373,-0.27682080,-3.92162900,0.66129420,0.00793553
-8.39304373,-0.04613681,-3.92162900,0.15378940,0.00787402
-8.31304373,-0.01537894,-3.93700800,-0.07689468,0.00784326
-8.23304373,-0.16916830,-3.96776600,-0.04613681,0.00784326
-8.15304373,-0.47674700,-4.02928100,0.24606300,0.00787402
-8.07304373,-0.92273620,-4.10617600,0.73818890,0.00787402
-7.99304372,-1.43024100,-4.18307100,1.36872500,0.00790477
-7.91304372,-1.98388300,-4.25996500,2.04539800,0.00790477
-7.83304372,-2.50676700,-4.29072300,2.69131400,0.00790477
-7.75304372,-2.99889300,-4.27534400,3.26033400,0.00787402
-7.67304372,-3.42950300,-4.18307100,3.66018700,0.00784326
-7.59304372,-3.78321800,-4.02928100,3.89087100,0.00784326
-7.51304372,-4.04466000,-3.79859700,3.90625000,0.00784326
-7.43304372,-4.24458600,-3.49101900,3.72170300,0.00784326
-7.35304372,-4.36761800,-3.10654500,3.35260800,0.00787402
-7.27304372,-4.45989200,-2.67593500,2.86048200,0.00790477
-7.19304371,-4.49065000,-2.21456700,2.27608300,0.00790477
-7.11304371,-4.49065000,-1.73782000,1.67630400,0.00790477
-7.03304371,-4.45989200,-1.27645200,1.09190400,0.00790477
-6.95304371,-4.36761800,-0.83046260,0.58439960,0.00787402
-6.87304371,-4.24458600,-0.46136810,0.23068400,0.00784326
-6.79304371,-4.04466000,-0.13841040,0.03075787,0.00784326
-6.71304371,-3.78321800,0.12303150,0.01537894,0.00784326
-6.63304371,-3.42950300,0.30757870,0.16916830,0.00784326
-6.55304371,-2.99889300,0.43061020,0.49212600,0.00787402
-6.47304370,-2.50676700,0.50750490,0.92273620,0.00790477
-6.39304370,-1.98388300,0.53826270,1.43024100,0.00790477
-6.31304370,-1.43024100,0.53826270,1.98388300,0.00790477
-6.23304370,-0.92273620,0.50750490,2.50676700,0.00787402
-6.15304370,-0.49212600,0.43061020,3.01427100,0.00787402
-6.07304370,-0.16916830,0.30757870,3.44488200,0.00784326
-5.99304370,-0.01537894,0.12303150,3.78321800,0.00784326
-5.91304370,-0.03075787,-0.13841040,4.02928100,0.00787402
-5.83304370,-0.23068400,-0.46136810,4.19845000,0.00793553
-5.75304369,-0.58439960,-0.83046260,4.27534400,0.00805856
-5.67304369,-1.09190400,-1.27645200,4.29072300,0.00821235
-5.59304369,-1.67630400,-1.73782000,4.25996500,0.00836614
-5.51304369,-2.27608300,-2.21456700,4.18307100,0.00851993
-5.43304369,-2.86048200,-2.67593500,4.10617600,0.00858145
-5.35304369,-3.35260800,-3.10654500,4.02928100,0.00855069
-5.27304369,-3.70632400,-3.47564000,3.96776600,0.00839690
-5.19304369,-3.89087100,-3.78321800,3.93700800,0.00805856
-5.11304369,-3.90625000,-4.04466000,3.92162900,0.00756644
-5.03304369,-3.75246000,-4.22920700,3.92162900,0.00688976
-4.95304368,-3.44488200,-4.36761800,3.93700800,0.00602854
-4.87304368,-3.02965000,-4.44451300,3.93700800,0.00501353
-4.79304368,-2.52214600,-4.49065000,3.95238700,0.00396777
-4.71304368,-1.96850400,-4.49065000,3.95238700,0.00286048
-4.63304368,-1.43024100,-4.44451300,3.95238700,0.00184547
-4.55304368,-0.92273620,-4.36761800,3.93700800,0.00098425
-4.47304368,-0.49212600,-4.22920700,3.92162900,0.00033834
-4.39304368,-0.13841040,-4.04466000,3.92162900,0.00003076
-4.31304368,0.10765260,-3.78321800,3.92162900,0.00006152
-4.23304367,0.27682080,-3.47564000,3.92162900,0.00046137
-4.15304367,0.33833660,-3.10654500,3.93700800,0.00116880
-4.07304367,0.35371550,-2.67593500,3.95238700,0.00218381
-3.99304367,0.30757870,-2.21456700,3.95238700,0.00335261
-3.91304367,0.23068400,-1.73782000,3.95238700,0.00455217
-3.83304367,0.15378940,-1.26107300,3.95238700,0.00572097
-3.75304367,0.09227362,-0.83046260,3.93700800,0.00670522
-3.67304367,0.03075787,-0.44598910,3.92162900,0.00741265
-3.59304367,0.00000000,-0.12303150,3.92162900,0.00778174
-3.51304366,0.00000000,0.10765260,3.92162900,0.00781250
-3.43304366,0.03075787,0.26144190,3.92162900,0.00750492
-3.35304366,0.09227362,0.33833660,3.93700800,0.00688976
-3.27304366,0.15378940,0.33833660,3.95238700,0.00605930
-3.19304366,0.23068400,0.30757870,3.95238700,0.00504429
-3.11304366,0.30757870,0.23068400,3.95238700,0.00393701
-3.03304366,0.35371550,0.16916830,3.95238700,0.00286048
-2.95304366,0.35371550,0.09227362,3.93700800,0.00187623
-2.87304366,0.27682080,0.04613681,3.92162900,0.00098425
-2.79304366,0.12303150,0.01537894,3.92162900,0.00027682
-2.71304365,-0.15378940,0.00000000,3.92162900,-0.00024606
-2.63304365,-0.53826270,-0.01537894,3.92162900,-0.00061516
-2.55304365,-1.01501000,0.00000000,3.93700800,-0.00086122
-2.47304365,-1.59940900,0.00000000,3.95238700,-0.00101501
-2.39304365,-2.21456700,0.00000000,3.95238700,-0.00107653
-2.31304365,-2.82972400,0.00000000,3.95238700,-0.00107653
-2.23304365,-3.36798700,0.00000000,3.95238700,-0.00101501
-2.15304365,-3.78321800,0.00000000,3.93700800,-0.00086122
-2.07304365,-4.02928100,-0.01537894,3.92162900,-0.00061516
-1.99304364,-4.02928100,0.00000000,3.92162900,-0.00024606
-1.91304364,-3.75246000,0.01537894,3.92162900,0.00027682
-1.83304364,-3.21419800,0.04613681,3.92162900,0.00092274
-1.75304364,-2.41449300,0.09227362,3.93700800,0.00166093
-1.67304364,-1.43024100,0.16916830,3.95238700,0.00255290
-1.59304364,-0.30757870,0.23068400,3.95238700,0.00347564
-1.51304364,0.84584150,0.30757870,3.95238700,0.00442913
-1.43304364,1.93774600,0.35371550,3.98314500,0.00535187
-1.35304364,2.84510300,0.33833660,4.09079700,0.00621309
-1.27304363,3.52177600,0.27682080,4.15231300,0.00698204
-1.19304363,3.87549200,0.10765260,4.06003900,0.00759720
-1.11304363,3.89087100,-0.13841040,3.69094500,0.00805856
-1.03304363,3.56791300,-0.49212600,2.93737700,0.00836614
-0.95304363,2.95275600,-0.92273620,1.75319900,0.00855069
-0.87304363,2.09153500,-1.43024100,0.21530510,0.00858145
-0.79304363,1.09190400,-1.96850400,-1.49175700,0.00851993
-0.71304363,0.00000000,-2.52214600,-3.04502900,0.00836614
-0.63304363,-1.07652500,-3.02965000,-3.84473400,0.00821235
-0.55304363,-2.09153500,-3.46026100,-3.35260800,0.00805856
-0.47304362,-2.95275600,-3.76783900,-1.43024100,0.00793553
-0.39304362,-3.64480800,-3.92162900,1.86085100,0.00787402
-0.31304362,-4.15231300,-3.87549200,6.21309000,0.00784326
-0.23304362,-4.47527100,-3.66018700,11.30352000,0.00784326
-0.15304362,-4.61368100,-3.24495600,16.76304000,0.00787402
-0.07304362,-4.64443900,-2.69131400,22.40711000,0.00787402
0.00695638,-4.56754400,-2.04539800,28.29724000,0.00790477
0.08695638,-4.42913300,-1.36872500,34.80253000,0.00790477
0.16695638,-4.29072300,-0.73818890,42.66117000,0.00790477
0.24695639,-4.21382900,-0.24606300,52.85740000,0.00787402
0.32695639,-4.15231300,0.04613681,66.28321000,0.00784326
0.40695639,-4.02928100,0.07689468,83.73830000,0.00784326
0.48695639,-3.76783900,-0.15378940,105.69940000,0.00784326
0.56695639,-3.30647100,-0.66129420,132.18190000,0.00784326
0.64695639,-2.59904000,-1.41486200,162.69380000,0.00787402
0.72695639,-1.66092500,-2.35297700,196.08140000,0.00790477
0.80695639,-0.63053640,-3.41412400,230.76090000,0.00790477
0.88695639,0.30757870,-4.49065000,264.70220000,0.00790477
0.96695639,0.76894680,-5.53641700,295.69080000,0.00787402
1.04695640,0.39985230,-6.45915300,321.57360000,0.00787402
1.12695640,-0.83046260,-7.18196300,340.48960000,0.00784326
1.20695640,-2.76820900,-7.68946800,351.08570000,0.00784326
1.28695640,-5.15194400,-7.93553100,352.65440000,0.00787402
1.36695640,-7.68946800,-7.93553100,345.19560000,0.00793553
1.44695640,-10.15010000,-7.72022600,329.47830000,0.00805856
1.52695640,-12.45694000,-7.32037400,306.84050000,0.00821235
1.60695640,-14.77916000,-6.78211100,279.08160000,0.00836614
1.68695640,-17.60888000,-6.16695300,248.20070000,0.00851993
1.76695641,-21.88423000,-5.58255400,216.21250000,0.00851993
1.84695641,-28.60482000,-5.09042800,184.90090000,0.00830463
1.92695641,-38.30893000,-4.67519700,155.68100000,0.00799705
2.00695641,-51.21186000,-4.21382900,129.47530000,0.00784326
2.08695641,-67.19057000,-3.58329200,106.74520000,0.00796629
2.16695641,-85.82984000,-2.70669300,87.44463000,0.00861220
2.24695641,-106.51450000,-1.49175700,71.15834000,0.00981176
2.32695641,-128.52180000,-0.03075787,57.30192000,0.01153420
2.40695641,-151.23650000,1.56865100,45.16793000,0.01344119
2.48695642,-174.21260000,2.98351400,34.11048000,0.01504060
2.56695642,-197.49630000,3.67556500,23.66818000,0.01540969
2.64695642,-221.28750000,3.15268200,13.70263000,0.01374877
2.72695642,-245.52470000,1.26107300,4.33686000,0.00978100
2.80695642,-270.08490000,-1.92236700,-4.09079700,0.00372170
2.88695642,-294.72200000,-6.15157400,-11.21124000,-0.00406004
2.96695642,-319.12830000,-11.08821000,-16.67077000,-0.01291831
3.04695642,-342.87340000,-16.40932000,-20.25406000,-0.02236097
3.12695642,-365.54190000,-21.96112000,-21.97650000,-0.03201895
3.20695642,-386.73410000,-27.74360000,-22.06877000,-0.04201525
3.28695643,-406.15770000,-34.11048000,-21.13066000,-0.05296506
3.36695643,-423.79730000,-41.90760000,-19.80807000,-0.06628322
3.44695643,-439.68380000,-52.04232000,-18.45472000,-0.08350763
3.52695643,-453.67860000,-65.02214000,-17.22441000,-0.10562250
3.60695643,-465.58190000,-81.06237000,-16.17864000,-0.13318160
3.68695643,-475.19370000,-100.07070000,-15.22515000,-0.16624630
3.76695643,-482.28340000,-121.63200000,-14.22552000,-0.20426300
3.84695643,-486.72800000,-145.14640000,-13.07210000,-0.24618600
3.92695643,-488.41960000,-169.86040000,-11.65723000,-0.29072340
4.00695644,-487.43540000,-195.08180000,-9.93479300,-0.33633740
4.08695644,-483.89820000,-220.22640000,-8.02780400,-0.38155140
4.16695644,-478.19260000,-245.15560000,-6.09005900,-0.42538140
4.24695644,-470.79530000,-269.85420000,-4.18307100,-0.46705830
4.32695644,-462.07550000,-294.15290000,-2.38373500,-0.50575170
4.40695644,-452.34060000,-317.89800000,-0.75356790,-0.54087720
4.48695644,-441.77530000,-340.84340000,0.69205210,-0.57206570
4.56695644,-430.42570000,-362.75830000,1.95312500,-0.59907110
4.64695644,-418.29170000,-383.33540000,3.01427100,-0.62183200
4.72695645,-405.25030000,-402.26680000,3.92162900,-0.64034820
4.80695645,-391.20940000,-419.26060000,4.69057600,-0.65461980
4.88695645,-375.93810000,-434.05510000,5.38262700,-0.66470840
4.96695645,-359.43650000,-446.54280000,5.99778500,-0.67070620
5.04695645,-342.04290000,-456.69290000,6.58218500,-0.67270550
5.12695645,-324.28020000,-464.33620000,7.13582600,-0.67052170
5.20695645,-306.67140000,-469.27290000,7.62795300,-0.66393950
5.28695645,-289.75450000,-471.37980000,8.04318300,-0.65283580
5.36695645,-273.85270000,-470.53390000,8.38152000,-0.63705710
5.44695645,-259.13510000,-466.73530000,8.61220400,-0.61675690
5.52695646,-245.49390000,-460.04550000,8.73523500,-0.59218130
5.60695646,-232.63720000,-450.67970000,8.75061400,-0.56394560
5.68695646,-219.87270000,-438.89950000,8.68909800,-0.53275720
5.76695646,-206.58530000,-425.15070000,8.56606700,-0.49960010
5.84695646,-192.71340000,-409.94090000,8.39689900,-0.46564350
5.92695646,-178.39570000,-393.80840000,8.19697300,-0.43202510
6.00695646,-163.98560000,-377.13760000,7.96628900,-0.39979090
6.08695646,-149.94460000,-360.23620000,7.70484700,-0.36958660
6.16695646,-136.67260000,-343.27320000,7.39726800,-0.34181230
6.24695647,-124.44640000,-326.26410000,7.02817400,-0.31643700
6.32695647,-113.35810000,-309.14740000,6.61294300,-0.29312250
6.40695647,-103.28490000,-291.78460000,6.16695300,-0.27137670
6.48695647,-93.73462000,-273.91420000,5.69020700,-0.25021530
6.56695647,-84.18430000,-255.47490000,5.21345900,-0.22899240
6.64695647,-74.54170000,-236.75870000,4.76747000,-0.20764640
6.72695647,-64.91449000,-218.27320000,4.38299700,-0.18660800
6.80695647,-55.51796000,-200.57210000,4.06003900,-0.16643090
6.88695647,-46.62893000,-184.20890000,3.79859700,-0.14782230
6.96695648,-38.50886000,-169.52200000,3.62942900,-0.13130540
7.04695648,-31.35765000,-156.68060000,3.50639700,-0.11724900
7.12695648,-25.25221000,-145.57700000,3.44488200,-0.10565330
7.20695648,-20.10027000,-135.88830000,3.41412400,-0.09621063
7.28695648,-15.59424000,-126.86080000,3.41412400,-0.08799828
7.36695648,-11.42655000,-117.87950000,3.42950300,-0.08018578
7.44695648,-7.58181600,-108.74450000,3.50639700,-0.07252707
7.52695648,-4.12155500,-99.56323000,3.61405000,-0.06508366
7.60695648,-1.19955700,-90.59731000,3.79859700,-0.05810162
7.68695648,0.99963080,-82.18504000,4.06003900,-0.05198081
7.76695649,2.36835600,-74.64935000,4.42913300,-0.04699803
7.84695649,2.81434500,-68.25172000,4.87512300,-0.04343012
7.92695649,2.36835600,-63.02288000,5.38262700,-0.04130783
8.00695649,1.18417800,-58.82443000,5.92089000,-0.04047736
8.08695649,-0.43061020,-55.19500000,6.47453200,-0.04032357
8.16695649,-2.21456700,-51.65784000,6.96665800,-0.04032357
8.24695649,-3.98314500,-48.04380000,7.38188900,-0.04023130
8.32695649,-5.65944900,-44.39899000,7.67408900,-0.03995448
8.40695649,-7.15120500,-40.87721000,7.82787800,-0.03949311
8.48695650,-8.48917200,-37.67839000,7.82787800,-0.03893947
8.56695650,-9.70410800,-35.01784000,7.67408900,-0.03841658
8.64695650,-10.82677000,-33.04933000,7.38188900,-0.03798597
8.72695650,-11.91868000,-31.75750000,6.96665800,-0.03780143
8.80695650,-13.01058000,-31.05007000,6.47453200,-0.03783219
8.88695650,-14.10248000,-30.55795000,5.92089000,-0.03795522
8.96695650,-15.20977000,-29.89665000,5.38262700,-0.03810900
9.04695650,-16.36319000,-28.80475000,4.85974400,-0.03826280
9.12695650,-17.60888000,-27.15920000,4.41375400,-0.03853961
9.20695651,-18.91609000,-24.88312000,4.06003900,-0.03893947
9.28695651,-20.31557000,-22.05339000,3.81397600,-0.03958539
9.36695651,-21.77658000,-18.73154000,3.66018700,-0.04047736
9.44695651,-23.26833000,-15.07136000,3.59867100,-0.04161540
9.52695651,-24.72933000,-11.22662000,3.59867100,-0.04296875
9.60695651,-26.12881000,-7.33575200,3.64480800,-0.04441437
9.68695651,-27.42064000,-3.44488200,3.72170300,-0.04576772
9.76695651,-28.57406000,0.36909450,3.78321800,-0.04687500
9.84695651,-29.58907000,4.01390200,3.84473400,-0.04755167
9.92695651,-30.43491000,7.39726800,3.89087100,-0.04776698
10.00695652,-31.11159000,10.41154000,3.90625000,-0.04742864
10.08695652,-31.60371000,13.01058000,3.92162900,-0.04656742
10.16695652,-31.94205000,15.14825000,3.93700800,-0.04524483
10.24695652,-32.12659000,16.83994000,3.93700800,-0.04349164
10.32695652,-32.12659000,18.11639000,3.95238700,-0.04140010
10.40695652,-31.97281000,19.02374000,3.95238700,-0.03903174
10.48695652,-31.63447000,19.63890000,3.95238700,-0.03644808
10.56695652,-31.08083000,20.02337000,3.95238700,-0.03367987
10.64695652,-30.31188000,20.17716000,3.93700800,-0.03078863
10.72695653,-29.31225000,20.13103000,3.92162900,-0.02783588
10.80695653,-28.12807000,19.83883000,3.92162900,-0.02494464
10.88695653,-26.75935000,19.31594000,3.92162900,-0.02214567
10.96695653,-25.23683000,18.56238000,3.92162900,-0.01950049
11.04695653,-23.62205000,17.54737000,3.93700800,-0.01697835
11.12695653,-21.89960000,16.30167000,3.95238700,-0.01464075
11.20695653,-20.08489000,14.84067000,3.95238700,-0.01239542
11.28695653,-18.17790000,13.21051000,3.95238700,-0.01021161
11.36695653,-16.13251000,11.41117000,3.95238700,-0.00802781
