Time,Channel A,Channel B,Channel C,Channel D
(ns),(mV),(mV),(mV),(V)

-15.41818183,-0.03075787,-3.93700800,3.78321800,0.00784326
-15.33818182,-0.21530510,-4.01390200,3.47564000,0.00784326
-15.25818182,-0.58439960,-4.12155500,3.10654500,0.00787402
-15.17818182,-1.09190400,-4.27534400,2.67593500,0.00790477
-15.09818182,-1.67630400,-4.42913300,2.21456700,0.00790477
-15.01818182,-2.27608300,-4.56754400,1.73782000,0.00790477
-14.93818182,-2.86048200,-4.62906000,1.27645200,0.00787402
-14.85818182,-3.35260800,-4.61368100,0.83046260,0.00787402
-14.77818182,-3.70632400,-4.45989200,0.46136810,0.00784326
-14.69818182,-3.89087100,-4.13693400,0.13841040,0.00784326
-14.61818181,-3.90625000,-3.66018700,-0.12303150,0.00787402
-14.53818181,-3.75246000,-2.99889300,-0.30757870,0.00793553
-14.45818181,-3.44488200,-2.18380900,-0.43061020,0.00805856
-14.37818181,-3.02965000,-1.24569400,-0.50750490,0.00821235
-14.29818181,-2.52214600,-0.24606300,-0.53826270,0.00836614
-14.21818181,-1.96850400,0.78432570,-0.53826270,0.00851993
-14.13818181,-1.43024100,1.75319900,-0.50750490,0.00858145
-14.05818181,-0.92273620,2.59904000,-0.43061020,0.00855069
-13.97818181,-0.49212600,3.29109200,-0.30757870,0.00839690
-13.89818180,-0.13841040,3.76783900,-0.12303150,0.00805856
-13.81818180,0.10765260,4.01390200,0.13841040,0.00756644
-13.73818180,0.27682080,4.04466000,0.46136810,0.00688976
-13.65818180,0.33833660,3.87549200,0.83046260,0.00602854
-13.57818180,0.35371550,3.52177600,1.27645200,0.00501353
-13.49818180,0.30757870,3.06040800,1.73782000,0.00396777
-13.41818180,0.23068400,2.52214600,2.21456700,0.00286048
-13.33818180,0.16916830,1.93774600,2.67593500,0.00184547
-13.25818180,0.10765260,1.36872500,3.10654500,0.00101501
-13.17818180,0.04613681,0.79970470,3.49101900,0.00039985
-13.09818179,0.01537894,0.26144190,3.79859700,0.00006152
-13.01818179,-0.01537894,-0.26144190,4.01390200,0.00003076
-12.93818179,-0.04613681,-0.76894680,4.15231300,0.00027682
-12.85818179,-0.10765260,-1.27645200,4.18307100,0.00079970
-12.77818179,-0.16916830,-1.78395700,4.12155500,0.00153789
-12.69818179,-0.23068400,-2.27608300,4.01390200,0.00239911
-12.61818179,-0.30757870,-2.75283000,3.89087100,0.00335261
-12.53818179,-0.35371550,-3.18344000,3.76783900,0.00433686
-12.45818179,-0.35371550,-3.53715500,3.69094500,0.00532111
-12.37818178,-0.27682080,-3.78321800,3.70632400,0.00633612
-12.29818178,-0.12303150,-3.90625000,3.81397600,0.00732037
-12.21818178,0.15378940,-3.89087100,4.06003900,0.00836614
-12.13818178,0.53826270,-3.73708200,4.39837600,0.00944267
-12.05818178,1.01501000,-3.42950300,4.85974400,0.01061147
-11.97818178,1.59940900,-3.01427100,5.36724900,0.01178027
-11.89818178,2.21456700,-2.52214600,5.92089000,0.01294907
-11.81818178,2.82972400,-1.96850400,6.47453200,0.01402559
-11.73818178,3.36798700,-1.43024100,6.96665800,0.01494833
-11.65818177,3.78321800,-0.92273620,7.38188900,0.01562500
-11.57818177,4.01390200,-0.49212600,7.67408900,0.01596334
-11.49818177,4.01390200,-0.13841040,7.82787800,0.01590182
-11.41818177,3.76783900,0.10765260,7.81250000,0.01534818
-11.33818177,3.26033400,0.27682080,7.62795300,0.01436393
-11.25818177,2.52214600,0.33833660,7.28961600,0.01288755
-11.17818177,1.58403000,0.35371550,6.79749000,0.01107283
-11.09818177,0.53826270,0.30757870,6.22846900,0.00898130
-11.01818177,-0.53826270,0.23068400,5.62869100,0.00682825
-10.93818177,-1.59940900,0.16916830,5.02891200,0.00470596
-10.85818176,-2.52214600,0.09227362,4.52140800,0.00282972
-10.77818176,-3.26033400,0.04613681,4.15231300,0.00132259
-10.69818176,-3.76783900,0.01537894,3.95238700,0.00030758
-10.61818176,-3.99852300,0.00000000,3.95238700,-0.00015379
-10.53818176,-3.96776600,-0.01537894,4.15231300,-0.00009227
-10.45818176,-3.69094500,0.00000000,4.52140800,0.00049213
-10.37818176,-3.19881900,0.00000000,5.02891200,0.00147638
-10.29818176,-2.58366100,0.00000000,5.62869100,0.00273745
-10.21818176,-1.90698800,0.00000000,6.22846900,0.00409080
-10.13818175,-1.24569400,0.00000000,6.79749000,0.00538263
-10.05818175,-0.67667320,0.00000000,7.27423700,0.00652067
-9.97818175,-0.26144190,-0.01537894,7.61257400,0.00732037
-9.89818175,-0.03075787,0.00000000,7.81250000,0.00778174
-9.81818175,-0.01537894,0.01537894,7.84325700,0.00781250
-9.73818175,-0.21530510,0.04613681,7.72022600,0.00744341
-9.65818175,-0.58439960,0.09227362,7.47416300,0.00670522
-9.57818175,-1.07652500,0.16916830,7.13582600,0.00572097
-9.49818175,-1.67630400,0.23068400,6.70521600,0.00455217
-9.41818174,-2.27608300,0.30757870,6.22846900,0.00335261
-9.33818174,-2.86048200,0.33833660,5.72096400,0.00218381
-9.25818174,-3.35260800,0.33833660,5.19808000,0.00116880
-9.17818174,-3.70632400,0.26144190,4.69057600,0.00046137
-9.09818174,-3.89087100,0.10765260,4.16769200,0.00006152
-9.01818174,-3.89087100,-0.12303150,3.67556500,0.00003076
-8.93818174,-3.70632400,-0.44598910,3.16806100,0.00033834
-8.85818174,-3.35260800,-0.83046260,2.67593500,0.00098425
-8.77818174,-2.86048200,-1.26107300,2.16843000,0.00184547
-8.69818174,-2.27608300,-1.73782000,1.67630400,0.00286048
-8.61818173,-1.67630400,-2.21456700,1.19955700,0.00396777
-8.53818173,-1.09190400,-2.67593500,0.76894680,0.00501353
-8.45818173,-0.58439960,-3.10654500,0.39985230,0.00599779
-8.37818173,-0.21530510,-3.49101900,0.13841040,0.00685901
-8.29818173,-0.03075787,-3.79859700,0.01537894,0.00756644
-8.21818173,-0.03075787,-4.02928100,0.03075787,0.00808932
-8.13818173,-0.21530510,-4.18307100,0.19992620,0.00848917
-8.05818173,-0.58439960,-4.27534400,0.50750490,0.00873524
-7.97818173,-1.09190400,-4.29072300,0.92273620,0.00891978
-7.89818172,-1.67630400,-4.25996500,1.43024100,0.00898130
-7.81818172,-2.27608300,-4.18307100,1.98388300,0.00898130
-7.73818172,-2.86048200,-4.10617600,2.50676700,0.00891978
-7.65818172,-3.35260800,-4.02928100,3.01427100,0.00873524
-7.57818172,-3.70632400,-3.96776600,3.44488200,0.00848917
-7.49818172,-3.89087100,-3.92162900,3.78321800,0.00808932
-7.41818172,-3.90625000,-3.92162900,4.02928100,0.00756644
-7.33818172,-3.75246000,-3.96776600,4.19845000,0.00685901
-7.25818172,-3.44488200,-4.02928100,4.27534400,0.00599779
-7.17818172,-3.02965000,-4.10617600,4.29072300,0.00501353
-7.09818171,-2.52214600,-4.18307100,4.25996500,0.00396777
-7.01818171,-1.96850400,-4.25996500,4.18307100,0.00286048
-6.93818171,-1.43024100,-4.29072300,4.10617600,0.00184547
-6.85818171,-0.93811510,-4.27534400,4.02928100,0.00098425
-6.77818171,-0.49212600,-4.19845000,3.96776600,0.00036909
-6.69818171,-0.13841040,-4.02928100,3.93700800,0.00003076
-6.61818171,0.12303150,-3.78321800,3.92162900,0.00003076
-6.53818171,0.30757870,-3.44488200,3.92162900,0.00036909
-6.45818171,0.43061020,-3.01427100,3.93700800,0.00098425
-6.37818170,0.50750490,-2.50676700,3.93700800,0.00184547
-6.29818170,0.53826270,-1.98388300,3.95238700,0.00286048
-6.21818170,0.53826270,-1.43024100,3.95238700,0.00396777
-6.13818170,0.50750490,-0.92273620,3.95238700,0.00501353
-6.05818170,0.44598910,-0.49212600,3.93700800,0.00602854
-5.97818170,0.32295760,-0.16916830,3.92162900,0.00688976
-5.89818170,0.12303150,-0.01537894,3.92162900,0.00756644
-5.81818170,-0.15378940,-0.03075787,3.92162900,0.00805856
-5.73818170,-0.53826270,-0.23068400,3.92162900,0.00839690
-5.65818169,-1.03038900,-0.58439960,3.93700800,0.00855069
-5.57818169,-1.59940900,-1.09190400,3.95238700,0.00858145
-5.49818169,-2.21456700,-1.67630400,3.95238700,0.00851993
-5.41818169,-2.82972400,-2.27608300,3.95238700,0.00836614
-5.33818169,-3.36798700,-2.86048200,3.95238700,0.00821235
-5.25818169,-3.78321800,-3.35260800,3.93700800,0.00805856
-5.17818169,-4.01390200,-3.70632400,3.92162900,0.00793553
-5.09818169,-4.01390200,-3.89087100,3.92162900,0.00787402
-5.01818169,-3.76783900,-3.90625000,3.92162900,0.00784326
-4.93818169,-3.26033400,-3.75246000,3.92162900,0.00784326
-4.85818168,-2.52214600,-3.44488200,3.93700800,0.00787402
-4.77818168,-1.58403000,-3.02965000,3.95238700,0.00787402
-4.69818168,-0.53826270,-2.52214600,3.95238700,0.00790477
-4.61818168,0.53826270,-1.96850400,3.95238700,0.00790477
-4.53818168,1.58403000,-1.43024100,3.95238700,0.00790477
-4.45818168,2.52214600,-0.92273620,3.93700800,0.00787402
-4.37818168,3.26033400,-0.49212600,3.92162900,0.00784326
-4.29818168,3.76783900,-0.13841040,3.92162900,0.00784326
-4.21818168,4.01390200,0.10765260,3.92162900,0.00784326
-4.13818167,4.01390200,0.27682080,3.92162900,0.00784326
-4.05818167,3.78321800,0.33833660,3.93700800,0.00787402
-3.97818167,3.36798700,0.35371550,3.95238700,0.00790477
-3.89818167,2.82972400,0.30757870,3.95238700,0.00790477
-3.81818167,2.21456700,0.23068400,3.95238700,0.00790477
-3.73818167,1.59940900,0.16916830,3.93700800,0.00790477
-3.65818167,1.01501000,0.09227362,3.93700800,0.00787402
-3.57818167,0.53826270,0.04613681,3.92162900,0.00784326
-3.49818167,0.15378940,0.01537894,3.92162900,0.00784326
-3.41818166,-0.12303150,0.00000000,3.93700800,0.00784326
-3.33818166,-0.27682080,-0.01537894,3.96776600,0.00784326
-3.25818166,-0.35371550,0.00000000,4.02928100,0.00787402
-3.17818166,-0.35371550,0.00000000,4.10617600,0.00790477
-3.09818166,-0.30757870,0.00000000,4.18307100,0.00790477
-3.01818166,-0.23068400,0.00000000,4.25996500,0.00790477
-2.93818166,-0.16916830,0.00000000,4.29072300,0.00790477
-2.85818166,-0.09227362,0.00000000,4.27534400,0.00787402
-2.77818166,-0.04613681,0.00000000,4.19845000,0.00784326
-2.69818166,-0.01537894,0.00000000,4.02928100,0.00784326
-2.61818165,0.00000000,0.00000000,3.78321800,0.00784326
-2.53818165,0.01537894,0.00000000,3.44488200,0.00784326
-2.45818165,0.00000000,0.00000000,3.01427100,0.00787402
-2.37818165,0.00000000,0.00000000,2.50676700,0.00790477
-2.29818165,0.00000000,0.00000000,1.98388300,0.00790477
-2.21818165,0.00000000,0.00000000,1.43024100,0.00790477
-2.13818165,0.00000000,0.00000000,0.92273620,0.00790477
-2.05818165,0.00000000,0.00000000,0.49212600,0.00787402
-1.97818165,-0.01537894,-0.01537894,0.18454720,0.00784326
-1.89818164,0.00000000,0.00000000,0.01537894,0.00784326
-1.81818164,0.01537894,0.01537894,0.01537894,0.00784326
-1.73818164,0.04613681,0.04613681,0.18454720,0.00784326
-1.65818164,0.09227362,0.09227362,0.49212600,0.00787402
-1.57818164,0.16916830,0.16916830,0.92273620,0.00790477
-1.49818164,0.23068400,0.23068400,1.43024100,0.00790477
-1.41818164,0.30757870,0.30757870,1.98388300,0.00790477
-1.33818164,0.35371550,0.33833660,2.58366100,0.00787402
-1.25818164,0.33833660,0.33833660,3.22957700,0.00787402
-1.17818163,0.27682080,0.26144190,3.75246000,0.00784326
-1.09818163,0.10765260,0.10765260,3.98314500,0.00784326
-1.01818163,-0.13841040,-0.12303150,3.70632400,0.00787402
-0.93818163,-0.49212600,-0.44598910,2.76820900,0.00793553
-0.85818163,-0.92273620,-0.83046260,1.13804100,0.00805856
-0.77818163,-1.43024100,-1.26107300,-1.06114600,0.00821235
-0.69818163,-1.96850400,-1.73782000,-3.55253400,0.00836614
-0.61818163,-2.52214600,-2.21456700,-5.84399600,0.00851993
-0.53818163,-3.02965000,-2.67593500,-7.18196300,0.00858145
-0.45818163,-3.46026100,-3.10654500,-6.81286900,0.00855069
-0.37818162,-3.76783900,-3.47564000,-4.29072300,0.00839690
-0.29818162,-3.92162900,-3.78321800,0.58439960,0.00805856
-0.21818162,-3.87549200,-4.04466000,7.81250000,0.00756644
-0.13818162,-3.66018700,-4.22920700,17.11676000,0.00688976
-0.05818162,-3.24495600,-4.36761800,28.09732000,0.00602854
0.02181838,-2.69131400,-4.44451300,40.29281000,0.00501353
0.10181838,-2.04539800,-4.49065000,53.25726000,0.00396777
0.18181838,-1.36872500,-4.49065000,66.68307000,0.00286048
0.26181838,-0.78432570,-4.44451300,80.44721000,0.00184547
0.34181839,-0.38447340,-4.36761800,94.64197000,0.00098425
0.42181839,-0.16916830,-4.22920700,109.43650000,0.00036909
0.50181839,-0.04613681,-4.04466000,125.12300000,0.00003076
0.58181839,0.06151574,-3.78321800,141.90140000,0.00003076
0.66181839,0.29219980,-3.47564000,159.89480000,0.00036909
0.74181839,0.67667320,-3.10654500,178.93390000,0.00098425
0.82181839,1.21493600,-2.67593500,198.54210000,0.00184547
0.90181839,1.79933500,-2.21456700,217.95030000,0.00286048
0.98181839,2.19918800,-1.73782000,236.03590000,0.00396777
1.06181839,1.92236700,-1.27645200,251.49170000,0.00501353
1.14181840,0.53826270,-0.84584150,262.96440000,0.00599779
1.22181840,-2.03002000,-0.47674700,269.20830000,0.00682825
1.30181840,-5.69020700,-0.15378940,269.23900000,0.00753568
1.38181840,-10.16548000,0.13841040,262.48770000,0.00812008
1.46181840,-15.13287000,0.38447340,248.95420000,0.00858145
1.54181840,-20.28482000,0.61515740,229.16150000,0.00895054
1.62181840,-25.48290000,0.83046260,204.17070000,0.00922736
1.70181840,-30.80401000,1.01501000,175.44290000,0.00947343
1.78181840,-36.61725000,1.15342000,144.77730000,0.00959646
1.86181841,-43.84534000,1.13804100,113.97330000,0.00950418
1.94181841,-53.41105000,0.92273620,84.79945000,0.00907357
2.02181841,-65.83722000,0.53826270,58.68602000,0.00848917
2.10181841,-81.33919000,0.15378940,36.70952000,0.00796629
2.18181841,-99.79391000,-0.10765260,19.39284000,0.00784326
2.26181841,-120.83230000,-0.09227362,6.79749000,0.00830463
2.34181841,-143.77770000,0.26144190,-1.52251500,0.00947343
2.42181841,-167.92260000,0.90735720,-6.30536400,0.01125738
2.50181841,-192.55970000,1.64554600,-8.50455100,0.01325664
2.58181842,-217.16600000,2.18380900,-9.22736200,0.01485605
2.66181842,-241.64920000,1.84547200,-9.39653000,0.01488681
2.74181842,-266.04020000,0.03075787,-9.61183500,0.01224163
2.82181842,-290.21590000,-3.47564000,-10.19623000,0.00648991
2.90181842,-313.93020000,-8.62758300,-11.18049000,-0.00233760
2.98181842,-336.96790000,-15.20977000,-12.38004000,-0.01396407
3.06181842,-359.03660000,-22.86848000,-13.48733000,-0.02768209
3.14181842,-379.78280000,-31.20386000,-14.22552000,-0.04290723
3.22181842,-398.89880000,-39.92372000,-14.37930000,-0.05899360
3.30181842,-416.10790000,-48.96653000,-13.87180000,-0.07581816
3.38181843,-431.25610000,-58.53223000,-12.91831000,-0.09356545
3.46181843,-444.35900000,-69.32825000,-11.81102000,-0.11331200
3.54181843,-455.55480000,-82.16965000,-10.65760000,-0.13622660
3.62181843,-464.76680000,-97.48708000,-9.51956200,-0.16313980
3.70181843,-471.88730000,-115.51120000,-8.39689900,-0.19445130
3.78181843,-476.74700000,-136.14970000,-7.28961600,-0.23022270
3.86181843,-479.22300000,-159.06430000,-6.16695300,-0.26999260
3.94181843,-479.17690000,-183.68600000,-4.98277500,-0.31280760
4.02181843,-476.56250000,-209.27660000,-3.72170300,-0.35749880
4.10181844,-471.44130000,-235.06700000,-2.38373500,-0.40255900
4.18181844,-463.95180000,-260.41150000,-1.03038900,-0.44654280
4.26181844,-454.44760000,-284.95630000,0.30757870,-0.48834280
4.34181844,-443.42090000,-308.48610000,1.53789400,-0.52694390
4.42181844,-431.28690000,-330.67790000,2.64517700,-0.56145420
4.50181844,-418.44550000,-351.25490000,3.55253400,-0.59113560
4.58181844,-405.15810000,-369.97110000,4.24458600,-0.61558810
4.66181844,-391.54770000,-386.64180000,4.70595500,-0.63462720
4.74181844,-377.62980000,-401.08260000,4.93663800,-0.64828370
4.82181845,-363.29660000,-413.20120000,4.98277500,-0.65680370
4.90181845,-348.40980000,-422.92070000,4.85974400,-0.66052530
4.98181845,-332.66170000,-430.22570000,4.65981800,-0.65987940
5.06181845,-315.91410000,-435.20850000,4.42913300,-0.65526570
5.14181845,-298.47440000,-438.02290000,4.21382900,-0.64708420
5.22181845,-280.77320000,-438.63800000,4.06003900,-0.63551920
5.30181845,-263.37960000,-437.03860000,3.95238700,-0.62060160
5.38181845,-246.80120000,-433.14770000,3.90625000,-0.60233150
5.46181845,-231.42220000,-426.90390000,3.90625000,-0.58070870
5.54181845,-217.42740000,-418.30710000,3.92162900,-0.55573330
5.62181846,-204.73980000,-407.40340000,3.93700800,-0.52768210
5.70181846,-193.05180000,-394.37740000,3.95238700,-0.49689350
5.78181846,-181.65600000,-379.45990000,3.95238700,-0.46395180
5.86181846,-169.87570000,-363.06590000,3.95238700,-0.42956450
5.94181846,-157.55720000,-345.73390000,3.93700800,-0.39486960
6.02181846,-144.80810000,-328.07890000,3.92162900,-0.36097440
6.10181846,-131.90510000,-310.57760000,3.92162900,-0.32889400
6.18181846,-119.23290000,-293.64540000,3.92162900,-0.29939710
6.26181846,-107.16040000,-277.48210000,3.92162900,-0.27288390
6.34181847,-95.97993000,-262.11860000,3.93700800,-0.24941560
6.42181847,-85.81446000,-247.41630000,3.95238700,-0.22862330
6.50181847,-76.61786000,-233.14470000,3.95238700,-0.20995320
6.58181847,-67.94415000,-218.81150000,3.95238700,-0.19232900
6.66181847,-59.40883000,-204.12460000,3.95238700,-0.17495080
6.74181847,-50.98117000,-189.17630000,3.93700800,-0.15769560
6.82181847,-42.78420000,-174.27410000,3.92162900,-0.14087110
6.90181847,-35.01784000,-159.84870000,3.92162900,-0.12503080
6.98181847,-27.94353000,-146.37670000,3.92162900,-0.11078990
7.06181848,-21.80733000,-134.18120000,3.92162900,-0.09879429
7.14181848,-16.73228000,-123.47750000,3.93700800,-0.08929010
7.22181848,-12.73376000,-114.23470000,3.95238700,-0.08230807
7.30181848,-9.70410800,-106.23770000,3.95238700,-0.07744832
7.38181848,-7.30499500,-98.85580000,3.95238700,-0.07372662
7.46181848,-5.22883800,-91.56618000,3.95238700,-0.07018947
7.54181848,-3.36798700,-84.23043000,3.93700800,-0.06634473
7.62181848,-1.75319900,-76.95619000,3.93700800,-0.06206939
7.70181848,-0.47674700,-69.97416000,3.92162900,-0.05736344
7.78181848,0.33833660,-63.57652000,3.90625000,-0.05244217
7.86181849,0.56902060,-58.07086000,3.89087100,-0.04758243
7.94181849,0.13841040,-53.61097000,3.84473400,-0.04303027
8.02181849,-0.93811510,-50.22760000,3.78321800,-0.03903174
8.10181849,-2.53752400,-47.76698000,3.72170300,-0.03561762
8.18181849,-4.44451300,-45.78309000,3.64480800,-0.03260335
8.26181849,-6.39763700,-43.78383000,3.59867100,-0.02983514
8.34181849,-8.24311000,-41.60003000,3.59867100,-0.02740527
8.42181849,-9.87327700,-39.17015000,3.66018700,-0.02540600
8.50181849,-11.21124000,-36.60187000,3.81397600,-0.02396038
8.58181850,-12.24163000,-34.03359000,4.04466000,-0.02328371
8.66181850,-12.96444000,-31.64985000,4.36761800,-0.02340674
8.74181850,-13.41043000,-29.58907000,4.76747000,-0.02436024
8.82181850,-13.67187000,-27.91277000,5.21345900,-0.02602116
8.90181850,-13.79491000,-26.57480000,5.69020700,-0.02823573
8.98181850,-13.87180000,-25.34449000,6.16695300,-0.03066560
9.06181850,-13.96407000,-23.92962000,6.62832200,-0.03306472
9.14181850,-14.19476000,-22.14567000,7.04355200,-0.03524852
9.22181850,-14.60999000,-19.93110000,7.41264700,-0.03709400
9.30181851,-15.27128000,-17.20903000,7.72022600,-0.03860113
9.38181851,-16.17864000,-14.05635000,7.95091000,-0.03976993
9.46181851,-17.31668000,-10.53457000,8.12007800,-0.04066191
9.54181851,-18.65465000,-6.73597400,8.21235200,-0.04133858
9.62181851,-20.08489000,-2.81434500,8.22773100,-0.04183071
9.70181851,-21.56127000,1.12266200,8.21235200,-0.04216905
9.78181851,-22.99151000,4.99815400,8.13545700,-0.04229208
9.86181851,-24.31410000,8.76599300,8.04318300,-0.04216905
9.94181851,-25.45214000,12.30315000,7.95091000,-0.04170768
10.02181851,-26.40563000,15.53273000,7.87401500,-0.04096949
10.10181852,-27.15920000,18.36245000,7.84325700,-0.03989296
10.18181852,-27.71284000,20.74619000,7.87401500,-0.03850886
10.26181852,-28.08194000,22.63779000,7.98166800,-0.03684793
10.34181852,-28.29724000,24.06804000,8.15083600,-0.03494094
10.42181852,-28.35876000,25.05229000,8.38152000,-0.03281865
10.50181852,-28.26648000,25.65207000,8.61220400,-0.03051181
10.58181852,-27.98966000,25.92889000,8.81213000,-0.02805118
10.66181852,-27.48216000,25.91351000,8.93516300,-0.02546752
10.74181852,-26.71321000,25.62131000,8.88902600,-0.02273007
10.82181853,-25.65207000,25.02153000,8.65834000,-0.01993110
10.90181853,-24.31410000,24.11417000,8.18159400,-0.01710138
10.98181853,-22.69931000,22.88386000,7.44340500,-0.01430241
11.06181853,-20.82308000,21.33058000,6.44377400,-0.01156496
11.14181853,-18.76230000,19.48511000,5.19808000,-0.00895054
11.22181853,-16.51698000,17.36282000,3.75246000,-0.00642840
11.30181853,-14.16400000,15.00984000,2.21456700,-0.00402928
11.38181853,-11.71875000,12.48770000,0.64591530,-0.00172244
11.46181853,-9.16584600,9.84251900,-0.83046260,0.00055364
11.54181853,-6.55142700,7.07431000,-2.12229300,0.00279897
11.62181854,-3.92162900,4.25996500,-3.12192400,0.00495202
