Time,Channel A,Channel B,Channel C,Channel D
(ns),(mV),(mV),(mV),(V)

-15.33658583,-4.02928100,-0.01537894,3.90625000,0.00784326
-15.25658582,-4.06003900,-0.16916830,3.89087100,0.00784326
-15.17658582,-3.87549200,-0.49212600,3.84473400,0.00787402
-15.09658582,-3.53715500,-0.92273620,3.78321800,0.00787402
-15.01658582,-3.06040800,-1.43024100,3.72170300,0.00790477
-14.93658582,-2.52214600,-1.98388300,3.64480800,0.00790477
-14.85658582,-1.93774600,-2.50676700,3.59867100,0.00790477
-14.77658582,-1.36872500,-2.99889300,3.59867100,0.00787402
-14.69658582,-0.81508360,-3.42950300,3.66018700,0.00784326
-14.61658582,-0.26144190,-3.78321800,3.81397600,0.00784326
-14.53658581,0.26144190,-4.04466000,4.06003900,0.00784326
-14.45658581,0.81508360,-4.24458600,4.41375400,0.00784326
-14.37658581,1.36872500,-4.36761800,4.85974400,0.00787402
-14.29658581,1.93774600,-4.45989200,5.38262700,0.00790477
-14.21658581,2.52214600,-4.49065000,5.92089000,0.00790477
-14.13658581,3.06040800,-4.49065000,6.47453200,0.00790477
-14.05658581,3.53715500,-4.44451300,6.96665800,0.00790477
-13.97658581,3.87549200,-4.36761800,7.36651000,0.00787402
-13.89658581,4.06003900,-4.22920700,7.65871000,0.00784326
-13.81658580,4.02928100,-4.04466000,7.81250000,0.00784326
-13.73658580,3.75246000,-3.78321800,7.82787800,0.00784326
-13.65658580,3.24495600,-3.47564000,7.72022600,0.00784326
-13.57658580,2.50676700,-3.10654500,7.47416300,0.00787402
-13.49658580,1.58403000,-2.67593500,7.13582600,0.00790477
-13.41658580,0.53826270,-2.21456700,6.70521600,0.00790477
-13.33658580,-0.53826270,-1.73782000,6.22846900,0.00790477
-13.25658580,-1.59940900,-1.26107300,5.72096400,0.00790477
-13.17658580,-2.52214600,-0.83046260,5.19808000,0.00787402
-13.09658580,-3.26033400,-0.44598910,4.69057600,0.00784326
-13.01658579,-3.76783900,-0.12303150,4.16769200,0.00784326
-12.93658579,-3.99852300,0.10765260,3.67556500,0.00784326
-12.85658579,-3.96776600,0.26144190,3.16806100,0.00784326
-12.77658579,-3.69094500,0.33833660,2.67593500,0.00787402
-12.69658579,-3.19881900,0.33833660,2.16843000,0.00790477
-12.61658579,-2.58366100,0.30757870,1.67630400,0.00790477
-12.53658579,-1.90698800,0.23068400,1.19955700,0.00790477
-12.45658579,-1.24569400,0.15378940,0.76894680,0.00790477
-12.37658579,-0.67667320,0.09227362,0.39985230,0.00787402
-12.29658578,-0.26144190,0.03075787,0.13841040,0.00784326
-12.21658578,-0.03075787,0.00000000,0.01537894,0.00784326
-12.13658578,-0.01537894,0.00000000,0.03075787,0.00784326
-12.05658578,-0.21530510,0.03075787,0.19992620,0.00784326
-11.97658578,-0.58439960,0.09227362,0.50750490,0.00787402
-11.89658578,-1.07652500,0.15378940,0.92273620,0.00790477
-11.81658578,-1.67630400,0.23068400,1.43024100,0.00790477
-11.73658578,-2.27608300,0.30757870,1.98388300,0.00790477
-11.65658578,-2.86048200,0.35371550,2.50676700,0.00787402
-11.57658577,-3.35260800,0.33833660,3.01427100,0.00787402
-11.49658577,-3.70632400,0.27682080,3.44488200,0.00784326
-11.41658577,-3.89087100,0.10765260,3.78321800,0.00784326
-11.33658577,-3.90625000,-0.13841040,4.02928100,0.00787402
-11.25658577,-3.75246000,-0.49212600,4.19845000,0.00793553
-11.17658577,-3.44488200,-0.92273620,4.27534400,0.00805856
-11.09658577,-3.02965000,-1.43024100,4.29072300,0.00821235
-11.01658577,-2.52214600,-1.96850400,4.25996500,0.00836614
-10.93658577,-1.96850400,-2.52214600,4.18307100,0.00851993
-10.85658577,-1.43024100,-3.01427100,4.10617600,0.00858145
-10.77658576,-0.92273620,-3.44488200,4.02928100,0.00855069
-10.69658576,-0.49212600,-3.73708200,3.96776600,0.00839690
-10.61658576,-0.13841040,-3.90625000,3.93700800,0.00805856
-10.53658576,0.10765260,-3.90625000,3.92162900,0.00756644
-10.45658576,0.27682080,-3.73708200,3.92162900,0.00688976
-10.37658576,0.33833660,-3.44488200,3.93700800,0.00602854
-10.29658576,0.35371550,-3.01427100,3.93700800,0.00501353
-10.21658576,0.30757870,-2.52214600,3.95238700,0.00396777
-10.13658576,0.23068400,-1.96850400,3.95238700,0.00286048
-10.05658575,0.16916830,-1.43024100,3.95238700,0.00184547
-9.97658575,0.09227362,-0.93811510,3.93700800,0.00098425
-9.89658575,0.04613681,-0.49212600,3.92162900,0.00036909
-9.81658575,0.01537894,-0.13841040,3.92162900,0.00003076
-9.73658575,0.00000000,0.12303150,3.92162900,0.00003076
-9.65658575,-0.01537894,0.30757870,3.92162900,0.00036909
-9.57658575,0.00000000,0.43061020,3.93700800,0.00098425
-9.49658575,0.00000000,0.50750490,3.95238700,0.00184547
-9.41658575,0.00000000,0.53826270,3.95238700,0.00286048
-9.33658574,0.00000000,0.53826270,3.95238700,0.00396777
-9.25658574,0.00000000,0.50750490,3.95238700,0.00501353
-9.17658574,0.00000000,0.43061020,3.93700800,0.00599779
-9.09658574,0.01537894,0.30757870,3.92162900,0.00685901
-9.01658574,0.00000000,0.12303150,3.92162900,0.00756644
-8.93658574,-0.01537894,-0.13841040,3.92162900,0.00808932
-8.85658574,-0.04613681,-0.49212600,3.92162900,0.00848917
-8.77658574,-0.09227362,-0.93811510,3.93700800,0.00873524
-8.69658574,-0.16916830,-1.43024100,3.95238700,0.00891978
-8.61658574,-0.23068400,-1.96850400,3.95238700,0.00898130
-8.53658573,-0.30757870,-2.52214600,3.95238700,0.00898130
-8.45658573,-0.35371550,-3.01427100,3.95238700,0.00888903
-8.37658573,-0.33833660,-3.44488200,3.93700800,0.00873524
-8.29658573,-0.27682080,-3.73708200,3.92162900,0.00845842
-8.21658573,-0.10765260,-3.90625000,3.92162900,0.00808932
-8.13658573,0.13841040,-3.90625000,3.92162900,0.00756644
-8.05658573,0.49212600,-3.73708200,3.92162900,0.00695128
-7.97658573,0.92273620,-3.44488200,3.93700800,0.00621309
-7.89658573,1.43024100,-3.01427100,3.95238700,0.00535187
-7.81658572,1.96850400,-2.52214600,3.95238700,0.00442913
-7.73658572,2.52214600,-1.96850400,3.95238700,0.00347564
-7.65658572,3.01427100,-1.43024100,3.95238700,0.00252215
-7.57658572,3.44488200,-0.92273620,3.93700800,0.00166093
-7.49658572,3.73708200,-0.49212600,3.92162900,0.00089198
-7.41658572,3.90625000,-0.13841040,3.92162900,0.00024606
-7.33658572,3.90625000,0.10765260,3.92162900,-0.00021531
-7.25658572,3.73708200,0.27682080,3.92162900,-0.00052288
-7.17658572,3.44488200,0.33833660,3.93700800,-0.00067667
-7.09658572,3.01427100,0.35371550,3.95238700,-0.00067667
-7.01658571,2.52214600,0.30757870,3.95238700,-0.00061516
-6.93658571,1.96850400,0.23068400,3.95238700,-0.00046137
-6.85658571,1.43024100,0.15378940,3.95238700,-0.00033834
-6.77658571,0.92273620,0.09227362,3.93700800,-0.00018455
-6.69658571,0.49212600,0.03075787,3.92162900,-0.00009227
-6.61658571,0.13841040,0.00000000,3.92162900,-0.00003076
-6.53658571,-0.10765260,0.00000000,3.92162900,0.00000000
-6.45658571,-0.27682080,0.03075787,3.92162900,0.00003076
-6.37658571,-0.33833660,0.09227362,3.93700800,0.00000000
-6.29658570,-0.35371550,0.15378940,3.95238700,0.00000000
-6.21658570,-0.30757870,0.23068400,3.95238700,0.00000000
-6.13658570,-0.23068400,0.30757870,3.95238700,0.00000000
-6.05658570,-0.16916830,0.33833660,3.95238700,0.00000000
-5.97658570,-0.09227362,0.33833660,3.93700800,0.00000000
-5.89658570,-0.04613681,0.26144190,3.93700800,0.00000000
-5.81658570,-0.01537894,0.10765260,3.92162900,0.00000000
-5.73658570,0.00000000,-0.12303150,3.90625000,0.00000000
-5.65658570,0.01537894,-0.44598910,3.89087100,0.00000000
-5.57658569,0.00000000,-0.83046260,3.84473400,0.00000000
-5.49658569,0.00000000,-1.26107300,3.78321800,0.00000000
-5.41658569,0.00000000,-1.73782000,3.72170300,0.00000000
-5.33658569,0.00000000,-2.21456700,3.64480800,0.00000000
-5.25658569,0.00000000,-2.67593500,3.59867100,0.00000000
-5.17658569,0.00000000,-3.10654500,3.59867100,0.00000000
-5.09658569,0.00000000,-3.49101900,3.66018700,0.00000000
-5.01658569,0.00000000,-3.79859700,3.81397600,0.00000000
-4.93658569,0.00000000,-4.02928100,4.06003900,0.00000000
-4.85658569,0.00000000,-4.18307100,4.41375400,0.00000000
-4.77658568,0.00000000,-4.27534400,4.85974400,0.00000000
-4.69658568,0.00000000,-4.29072300,5.38262700,0.00000000
-4.61658568,0.00000000,-4.25996500,5.92089000,0.00000000
-4.53658568,0.00000000,-4.18307100,6.47453200,0.00000000
-4.45658568,0.00000000,-4.10617600,6.96665800,0.00000000
-4.37658568,0.00000000,-4.04466000,7.38188900,0.00000000
-4.29658568,0.01537894,-3.98314500,7.67408900,0.00003076
-4.21658568,0.00000000,-3.93700800,7.82787800,0.00000000
-4.13658568,-0.01537894,-3.90625000,7.82787800,-0.00003076
-4.05658567,-0.04613681,-3.87549200,7.67408900,-0.00009227
-3.97658567,-0.09227362,-3.82935500,7.38188900,-0.00018455
-3.89658567,-0.16916830,-3.78321800,6.96665800,-0.00033834
-3.81658567,-0.23068400,-3.72170300,6.47453200,-0.00046137
-3.73658567,-0.30757870,-3.64480800,5.92089000,-0.00061516
-3.65658567,-0.35371550,-3.59867100,5.38262700,-0.00070743
-3.57658567,-0.35371550,-3.59867100,4.87512300,-0.00067667
-3.49658567,-0.27682080,-3.66018700,4.42913300,-0.00055364
-3.41658567,-0.12303150,-3.81397600,4.06003900,-0.00021531
-3.33658566,0.15378940,-4.06003900,3.79859700,0.00027682
-3.25658566,0.53826270,-4.41375400,3.61405000,0.00098425
-3.17658566,1.01501000,-4.85974400,3.50639700,0.00184547
-3.09658566,1.59940900,-5.38262700,3.42950300,0.00286048
-3.01658566,2.21456700,-5.92089000,3.41412400,0.00393701
-2.93658566,2.82972400,-6.47453200,3.41412400,0.00504429
-2.85658566,3.36798700,-6.96665800,3.42950300,0.00602854
-2.77658566,3.78321800,-7.38188900,3.50639700,0.00688976
-2.69658566,3.99852300,-7.67408900,3.61405000,0.00747416
-2.61658566,4.01390200,-7.82787800,3.79859700,0.00781250
-2.53658565,3.76783900,-7.82787800,4.06003900,0.00781250
-2.45658565,3.30647100,-7.67408900,4.42913300,0.00747416
-2.37658565,2.61441900,-7.38188900,4.87512300,0.00688976
-2.29658565,1.75319900,-6.96665800,5.38262700,0.00602854
-2.21658565,0.78432570,-6.47453200,5.92089000,0.00504429
-2.13658565,-0.24606300,-5.92089000,6.47453200,0.00393701
-2.05658565,-1.24569400,-5.38262700,6.96665800,0.00286048
-1.97658565,-2.16843000,-4.85974400,7.39726800,0.00187623
-1.89658565,-2.98351400,-4.41375400,7.68946800,0.00098425
-1.81658564,-3.64480800,-4.06003900,7.84325700,0.00027682
-1.73658564,-4.15231300,-3.81397600,7.81250000,-0.00024606
-1.65658564,-4.50602900,-3.66018700,7.58181600,-0.00061516
-1.57658564,-4.70595500,-3.59867100,7.18196300,-0.00086122
-1.49658564,-4.79822800,-3.59867100,6.64370100,-0.00101501
-1.41658564,-4.79822800,-3.64480800,5.99778500,-0.00107653
-1.33658564,-4.73671200,-3.72170300,5.32111200,-0.00107653
-1.25658564,-4.61368100,-3.78321800,4.76747000,-0.00101501
-1.17658564,-4.45989200,-3.82935500,4.45989200,-0.00086122
-1.09658563,-4.27534400,-3.87549200,4.29072300,-0.00061516
-1.01658563,-4.04466000,-3.90625000,4.09079700,-0.00024606
-0.93658563,-3.78321800,-3.93700800,3.66018700,0.00027682
-0.85658563,-3.46026100,-3.98314500,2.78358700,0.00092274
-0.77658563,-3.09116600,-4.04466000,1.36872500,0.00166093
-0.69658563,-2.67593500,-4.10617600,-0.52288380,0.00255290
-0.61658563,-2.21456700,-4.18307100,-2.58366100,0.00347564
-0.53658563,-1.73782000,-4.25996500,-4.33686000,0.00442913
-0.45658563,-1.27645200,-4.29072300,-4.96739600,0.00535187
-0.37658563,-0.84584150,-4.27534400,-3.66018700,0.00621309
-0.29658562,-0.47674700,-4.19845000,0.23068400,0.00698204
-0.21658562,-0.15378940,-4.02928100,7.13582600,0.00759720
-0.13658562,0.13841040,-3.78321800,17.19365000,0.00805856
-0.05658562,0.38447340,-3.44488200,30.28112000,0.00836614
0.02341438,0.61515740,-3.01427100,45.95226000,0.00855069
0.10341438,0.83046260,-2.50676700,63.57652000,0.00858145
0.18341438,1.01501000,-1.98388300,82.29269000,0.00851993
0.26341438,1.15342000,-1.43024100,101.28570000,0.00836614
0.34341438,1.13804100,-0.92273620,119.75580000,0.00821235
0.42341439,0.92273620,-0.49212600,137.04170000,0.00805856
0.50341439,0.55364170,-0.18454720,152.68210000,0.00793553
0.58341439,0.15378940,-0.01537894,166.44620000,0.00787402
0.66341439,-0.10765260,-0.01537894,178.24190000,0.00784326
0.74341439,-0.13841040,-0.18454720,188.14590000,0.00784326
0.82341439,0.16916830,-0.49212600,196.29670000,0.00787402
0.90341439,0.73818890,-0.92273620,202.78670000,0.00787402
0.98341439,1.41486200,-1.43024100,207.69250000,0.00790477
1.06341439,1.87623000,-1.98388300,210.89140000,0.00790477
1.14341439,1.49175700,-2.52214600,212.13700000,0.00787402
1.22341440,-0.32295760,-3.02965000,211.10670000,0.00781250
1.30341440,-3.75246000,-3.47564000,207.40030000,0.00778174
1.38341440,-8.75061400,-3.81397600,200.69510000,0.00778174
1.46341440,-15.07136000,-3.99852300,190.72960000,0.00793553
1.54341440,-22.33022000,-4.02928100,177.47290000,0.00821235
1.62341440,-30.17347000,-3.89087100,161.12510000,0.00864296
1.70341440,-38.32431000,-3.64480800,142.19360000,0.00919661
1.78341440,-46.75196000,-3.30647100,121.38590000,0.00981176
1.86341440,-55.70251000,-2.96813500,99.60937000,0.01033465
1.94341441,-65.97563000,-2.81434500,77.87893000,0.01051919
2.02341441,-78.44795000,-2.95275600,57.20964000,0.01011934
2.10341441,-93.56544000,-3.32185000,38.52423000,0.00928888
2.18341441,-111.55880000,-3.75246000,22.53014000,0.00830463
2.26341441,-132.28960000,-4.02928100,9.65797200,0.00750492
2.34341441,-155.38880000,-3.96776600,-0.01537894,0.00722810
2.42341441,-180.22580000,-3.44488200,-6.64370100,0.00768947
2.50341441,-206.06240000,-2.52214600,-10.70374000,0.00876599
2.58341441,-232.16040000,-1.43024100,-12.79527000,0.01008858
2.66341442,-257.92010000,-0.64591530,-13.70263000,0.01088829
2.74341442,-283.12620000,-0.98425190,-14.13324000,0.00971949
2.82341442,-307.73250000,-3.30647100,-14.45620000,0.00522884
2.90341442,-331.44680000,-7.99704600,-14.88681000,-0.00319882
2.98341442,-354.02310000,-15.14825000,-15.42507000,-0.01577879
3.06341442,-375.15370000,-24.60630000,-15.91720000,-0.03220350
3.14341442,-394.57740000,-36.00209000,-16.14788000,-0.05182702
3.22341442,-412.03250000,-48.82812000,-15.93258000,-0.07384966
3.30341442,-427.31910000,-62.59227000,-15.13287000,-0.09744094
3.38341442,-440.28360000,-77.00233000,-13.73339000,-0.12207800
3.46341443,-450.92580000,-91.93528000,-11.98019000,-0.14757630
3.54341443,-459.44570000,-107.83710000,-10.08858000,-0.17458170
3.62341443,-466.07400000,-125.23070000,-8.19697300,-0.20389390
3.70341443,-470.87230000,-144.36210000,-6.39763700,-0.23606670
3.78341443,-473.84040000,-165.35430000,-4.72133400,-0.27137670
3.86341443,-474.88620000,-188.06900000,-3.15268200,-0.30988560
3.94341443,-473.88650000,-212.21390000,-1.69168300,-0.35122420
4.02341443,-470.73390000,-237.28160000,-0.29219980,-0.39456200
4.10341443,-465.33580000,-262.65690000,1.07652500,-0.43885340
4.18341444,-457.73860000,-287.66300000,2.41449300,-0.48268330
4.26341444,-447.98840000,-311.70030000,3.70632400,-0.52460630
4.34341444,-436.42350000,-334.46110000,4.92125900,-0.56342270
4.42341444,-423.50510000,-355.69940000,6.01316400,-0.59793310
4.50341444,-409.71020000,-375.09230000,6.92052100,-0.62709150
4.58341444,-395.48470000,-392.33200000,7.59719500,-0.65000620
4.66341444,-381.15160000,-407.21880000,8.01242500,-0.66621550
4.74341444,-366.91060000,-419.55270000,8.12007800,-0.67553520
4.82341444,-352.79280000,-429.24150000,7.93553100,-0.67821110
4.90341445,-338.69030000,-436.25430000,7.48954200,-0.67473550
4.98341445,-324.37250000,-440.60650000,6.84362600,-0.66584650
5.06341445,-309.43960000,-442.37510000,6.09005900,-0.65237450
5.14341445,-293.59930000,-441.80610000,5.35187000,-0.63527310
5.22341445,-277.06690000,-439.09940000,4.70595500,-0.61537280
5.30341445,-260.18080000,-434.36270000,4.22920700,-0.59331940
5.38341445,-243.46390000,-427.68820000,3.96776600,-0.56948200
5.46341445,-227.43910000,-419.06060000,3.93700800,-0.54407600
5.54341445,-212.50610000,-408.47990000,4.12155500,-0.51716290
5.62341445,-198.84960000,-395.96150000,4.50602900,-0.48868110
5.70341446,-186.46960000,-381.56680000,5.02891200,-0.45866140
5.78341446,-175.10460000,-365.46500000,5.62869100,-0.42722690
5.86341446,-164.03170000,-347.81000000,6.22846900,-0.39450050
5.94341446,-152.65130000,-329.01700000,6.79749000,-0.36100520
6.02341446,-140.76340000,-309.65490000,7.27423700,-0.32754060
6.10341446,-128.47560000,-290.35430000,7.61257400,-0.29521410
6.18341446,-116.00330000,-271.73040000,7.81250000,-0.26504060
6.26341446,-103.74630000,-254.19840000,7.84325700,-0.23785060
6.34341446,-92.01218000,-238.01980000,7.72022600,-0.21413630
6.42341447,-81.10851000,-223.24060000,7.47416300,-0.19405140
6.50341447,-71.15834000,-209.67640000,7.13582600,-0.17722690
6.58341447,-62.13090000,-197.01950000,6.70521600,-0.16301670
6.66341447,-53.67249000,-184.67030000,6.22846900,-0.15015990
6.74341447,-45.44476000,-172.16720000,5.72096400,-0.13758000
6.82341447,-37.43233000,-159.55650000,5.19808000,-0.12496920
6.90341447,-29.81976000,-147.05340000,4.69057600,-0.11232780
6.98341447,-22.80696000,-135.08860000,4.16769200,-0.09999385
7.06341447,-16.67077000,-124.07730000,3.67556500,-0.08855192
7.14341448,-11.61110000,-114.40390000,3.16806100,-0.07846334
7.22341448,-7.73560500,-106.23770000,2.67593500,-0.07012795
7.30341448,-5.04429100,-99.57861000,2.16843000,-0.06363804
7.38341448,-3.36798700,-94.16522000,1.67630400,-0.05883981
7.46341448,-2.33759800,-89.38238000,1.19955700,-0.05499508
7.54341448,-1.58403000,-84.59953000,0.76894680,-0.05142717
7.62341448,-0.98425190,-79.61675000,0.39985230,-0.04785925
7.70341448,-0.47674700,-74.43405000,0.13841040,-0.04432210
7.78341448,-0.10765260,-69.22059000,0.01537894,-0.04084646
7.86341448,0.04613681,-64.22243000,0.03075787,-0.03767839
7.94341449,-0.12303150,-59.68565000,0.19992620,-0.03503322
8.02341449,-0.67667320,-55.79478000,0.50750490,-0.03306472
8.10341449,-1.64554600,-52.61134000,0.92273620,-0.03183440
8.18341449,-2.98351400,-50.07381000,1.43024100,-0.03131152
8.26341449,-4.55216500,-47.81311000,1.98388300,-0.03115773
8.34341449,-6.18233200,-45.46014000,2.52214600,-0.03112697
8.42341449,-7.84325700,-42.84571000,3.01427100,-0.03112697
8.50341449,-9.47342500,-39.96986000,3.44488200,-0.03115773
8.58341449,-11.02670000,-36.87869000,3.78321800,-0.03128076
8.66341450,-12.48770000,-33.72601000,4.02928100,-0.03152682
8.74341450,-13.85642000,-30.65022000,4.15231300,-0.03201895
8.82341450,-15.14825000,-27.78974000,4.18307100,-0.03275714
8.90341450,-16.36319000,-25.20608000,4.13693400,-0.03377214
8.98341450,-17.51661000,-22.86848000,4.01390200,-0.03497170
9.06341450,-18.60851000,-20.60777000,3.89087100,-0.03617126
9.14341450,-19.65428000,-18.22404000,3.76783900,-0.03727854
9.22341450,-20.71543000,-15.60962000,3.69094500,-0.03813976
9.30341450,-21.80733000,-12.71838000,3.70632400,-0.03875492
9.38341451,-22.94537000,-9.53494100,3.81397600,-0.03912402
9.46341451,-24.12955000,-6.10543700,4.06003900,-0.03924705
9.54341451,-25.34449000,-2.50676700,4.39837600,-0.03918553
9.62341451,-26.54404000,1.16879900,4.85974400,-0.03897022
9.70341451,-27.72822000,4.81360700,5.36724900,-0.03857037
9.78341451,-28.80475000,8.36614100,5.92089000,-0.03807825
9.86341451,-29.75824000,11.76489000,6.47453200,-0.03740158
9.94341451,-30.52719000,14.99446000,6.96665800,-0.03647884
10.02341451,-31.08083000,17.93184000,7.38188900,-0.03534080
10.10341451,-31.38841000,20.50012000,7.67408900,-0.03392594
10.18341452,-31.44992000,22.65317000,7.82787800,-0.03229577
10.26341452,-31.25000000,24.29872000,7.81250000,-0.03041954
10.34341452,-30.83477000,25.43676000,7.62795300,-0.02838952
10.42341452,-30.21961000,26.09805000,7.28961600,-0.02620571
10.50341452,-29.41990000,26.28260000,6.79749000,-0.02389887
10.58341452,-28.43565000,26.06730000,6.22846900,-0.02153051
10.66341452,-27.26685000,25.52903000,5.62869100,-0.01906988
10.74341452,-25.91351000,24.69857000,5.02891200,-0.01654774
10.82341452,-24.34486000,23.59129000,4.52140800,-0.01399483
10.90341453,-22.57628000,22.20718000,4.15231300,-0.01147269
10.98341453,-20.63853000,20.54626000,3.95238700,-0.00901206
11.06341453,-18.56238000,18.60851000,3.95238700,-0.00670522
11.14341453,-16.39395000,16.40932000,4.15231300,-0.00461368
11.22341453,-14.14862000,13.96407000,4.52140800,-0.00273745
11.30341453,-11.88792000,11.30352000,5.02891200,-0.00107653
11.38341453,-9.61183500,8.47379300,5.62869100,0.00039985
11.46341453,-7.28961600,5.55179600,6.22846900,0.00175320
11.54341453,-4.90588000,2.55290300,6.79749000,0.00310655
11.62341453,-2.44525100,-0.47674700,7.28961600,0.00445989
