Time,Channel A,Channel B,Channel C,Channel D
(ns),(mV),(mV),(mV),(V)

-15.40571483,-0.01537894,-3.64480800,3.92162900,0.00778174
-15.32571482,-0.04613681,-2.98351400,3.92162900,0.00741265
-15.24571482,-0.09227362,-2.16843000,3.93700800,0.00670522
-15.16571482,-0.16916830,-1.24569400,3.95238700,0.00572097
-15.08571482,-0.23068400,-0.24606300,3.95238700,0.00455217
-15.00571482,-0.30757870,0.78432570,3.95238700,0.00335261
-14.92571482,-0.35371550,1.75319900,3.95238700,0.00218381
-14.84571482,-0.33833660,2.59904000,3.93700800,0.00116880
-14.76571482,-0.27682080,3.29109200,3.93700800,0.00046137
-14.68571482,-0.10765260,3.76783900,3.92162900,0.00006152
-14.60571481,0.13841040,4.01390200,3.90625000,0.00003076
-14.52571481,0.49212600,4.04466000,3.89087100,0.00033834
-14.44571481,0.92273620,3.87549200,3.84473400,0.00098425
-14.36571481,1.43024100,3.52177600,3.78321800,0.00184547
-14.28571481,1.96850400,3.06040800,3.72170300,0.00286048
-14.20571481,2.52214600,2.52214600,3.64480800,0.00396777
-14.12571481,3.01427100,1.93774600,3.59867100,0.00501353
-14.04571481,3.42950300,1.35334600,3.59867100,0.00602854
-13.96571481,3.73708200,0.78432570,3.66018700,0.00688976
-13.88571480,3.89087100,0.26144190,3.81397600,0.00756644
-13.80571480,3.90625000,-0.24606300,4.06003900,0.00805856
-13.72571480,3.78321800,-0.72281000,4.41375400,0.00839690
-13.64571480,3.53715500,-1.18417800,4.85974400,0.00855069
-13.56571480,3.18344000,-1.61478800,5.38262700,0.00858145
-13.48571480,2.75283000,-2.04539800,5.92089000,0.00851993
-13.40571480,2.27608300,-2.44525100,6.47453200,0.00836614
-13.32571480,1.78395700,-2.84510300,6.96665800,0.00821235
-13.24571480,1.26107300,-3.21419800,7.38188900,0.00805856
-13.16571480,0.75356790,-3.53715500,7.67408900,0.00793553
-13.08571479,0.24606300,-3.81397600,7.82787800,0.00787402
-13.00571479,-0.24606300,-4.01390200,7.82787800,0.00784326
-12.92571479,-0.75356790,-4.13693400,7.67408900,0.00784326
-12.84571479,-1.26107300,-4.16769200,7.38188900,0.00787402
-12.76571479,-1.78395700,-4.12155500,6.96665800,0.00787402
-12.68571479,-2.27608300,-4.01390200,6.47453200,0.00790477
-12.60571479,-2.75283000,-3.89087100,5.92089000,0.00790477
-12.52571479,-3.18344000,-3.76783900,5.38262700,0.00790477
-12.44571479,-3.53715500,-3.69094500,4.85974400,0.00787402
-12.36571478,-3.79859700,-3.70632400,4.41375400,0.00787402
-12.28571478,-3.92162900,-3.82935500,4.06003900,0.00784326
-12.20571478,-3.89087100,-4.04466000,3.81397600,0.00781250
-12.12571478,-3.69094500,-4.36761800,3.66018700,0.00778174
-12.04571478,-3.33722900,-4.76747000,3.59867100,0.00768947
-11.96571478,-2.86048200,-5.21345900,3.59867100,0.00756644
-11.88571478,-2.27608300,-5.69020700,3.64480800,0.00744341
-11.80571478,-1.67630400,-6.16695300,3.72170300,0.00728962
-11.72571478,-1.07652500,-6.61294300,3.78321800,0.00719734
-11.64571477,-0.58439960,-7.04355200,3.84473400,0.00719734
-11.56571477,-0.21530510,-7.39726800,3.89087100,0.00732037
-11.48571477,-0.01537894,-7.70484700,3.92162900,0.00762795
-11.40571477,-0.03075787,-7.96628900,3.92162900,0.00812008
-11.32571477,-0.26144190,-8.16621500,3.89087100,0.00882751
-11.24571477,-0.67667320,-8.30462600,3.84473400,0.00971949
-11.16571477,-1.24569400,-8.39689900,3.78321800,0.01076526
-11.08571477,-1.90698800,-8.44303500,3.72170300,0.01184178
-11.00571477,-2.58366100,-8.44303500,3.64480800,0.01294907
-10.92571477,-3.19881900,-8.39689900,3.59867100,0.01393332
-10.84571476,-3.69094500,-8.30462600,3.59867100,0.01476378
-10.76571476,-3.96776600,-8.16621500,3.66018700,0.01534818
-10.68571476,-3.99852300,-7.96628900,3.81397600,0.01565576
-10.60571476,-3.76783900,-7.70484700,4.06003900,0.01565576
-10.52571476,-3.26033400,-7.35113100,4.41375400,0.01534818
-10.44571476,-2.52214600,-6.93590000,4.85974400,0.01476378
-10.36571476,-1.59940900,-6.45915300,5.38262700,0.01393332
-10.28571476,-0.53826270,-5.93626900,5.92089000,0.01294907
-10.20571476,0.53826270,-5.38262700,6.47453200,0.01184178
-10.12571475,1.58403000,-4.85974400,6.96665800,0.01076526
-10.04571475,2.52214600,-4.41375400,7.38188900,0.00971949
-9.96571475,3.26033400,-4.09079700,7.67408900,0.00882751
-9.88571475,3.76783900,-3.93700800,7.82787800,0.00812008
-9.80571475,4.01390200,-3.96776600,7.82787800,0.00762795
-9.72571475,4.01390200,-4.19845000,7.67408900,0.00732037
-9.64571475,3.78321800,-4.61368100,7.38188900,0.00719734
-9.56571475,3.36798700,-5.19808000,6.96665800,0.00719734
-9.48571475,2.82972400,-5.85937500,6.47453200,0.00728962
-9.40571474,2.21456700,-6.53604800,5.92089000,0.00744341
-9.32571474,1.58403000,-7.15120500,5.38262700,0.00756644
-9.24571474,1.01501000,-7.62795300,4.85974400,0.00768947
-9.16571474,0.52288380,-7.90477300,4.41375400,0.00778174
-9.08571474,0.13841040,-7.93553100,4.06003900,0.00781250
-9.00571474,-0.10765260,-7.68946800,3.81397600,0.00784326
-8.92571474,-0.23068400,-7.19734200,3.66018700,0.00787402
-8.84571474,-0.24606300,-6.45915300,3.59867100,0.00787402
-8.76571474,-0.18454720,-5.53641700,3.59867100,0.00790477
-8.68571474,-0.06151574,-4.49065000,3.64480800,0.00790477
-8.60571473,0.06151574,-3.41412400,3.72170300,0.00790477
-8.52571473,0.18454720,-2.35297700,3.78321800,0.00790477
-8.44571473,0.24606300,-1.41486200,3.82935500,0.00787402
-8.36571473,0.23068400,-0.67667320,3.87549200,0.00784326
-8.28571473,0.10765260,-0.15378940,3.90625000,0.00784326
-8.20571473,-0.13841040,0.09227362,3.93700800,0.00784326
-8.12571473,-0.52288380,0.09227362,3.98314500,0.00784326
-8.04571473,-1.01501000,-0.15378940,4.04466000,0.00787402
-7.96571473,-1.58403000,-0.58439960,4.10617600,0.00790477
-7.88571472,-2.21456700,-1.12266200,4.18307100,0.00790477
-7.80571472,-2.82972400,-1.73782000,4.25996500,0.00790477
-7.72571472,-3.36798700,-2.35297700,4.29072300,0.00790477
-7.64571472,-3.78321800,-2.92199800,4.27534400,0.00787402
-7.56571472,-4.01390200,-3.39874500,4.18307100,0.00784326
-7.48571472,-4.01390200,-3.76783900,4.02928100,0.00784326
-7.40571472,-3.76783900,-4.04466000,3.79859700,0.00784326
-7.32571472,-3.26033400,-4.21382900,3.49101900,0.00784326
-7.24571472,-2.52214600,-4.29072300,3.10654500,0.00787402
-7.16571472,-1.58403000,-4.29072300,2.67593500,0.00790477
-7.08571471,-0.53826270,-4.25996500,2.21456700,0.00790477
-7.00571471,0.53826270,-4.18307100,1.73782000,0.00790477
-6.92571471,1.58403000,-4.10617600,1.27645200,0.00790477
-6.84571471,2.52214600,-4.02928100,0.83046260,0.00787402
-6.76571471,3.26033400,-3.96776600,0.46136810,0.00784326
-6.68571471,3.76783900,-3.93700800,0.13841040,0.00784326
-6.60571471,4.01390200,-3.92162900,-0.12303150,0.00784326
-6.52571471,4.01390200,-3.92162900,-0.30757870,0.00784326
-6.44571471,3.78321800,-3.93700800,-0.43061020,0.00787402
-6.36571470,3.36798700,-3.93700800,-0.50750490,0.00790477
-6.28571470,2.82972400,-3.95238700,-0.53826270,0.00790477
-6.20571470,2.21456700,-3.95238700,-0.53826270,0.00790477
-6.12571470,1.59940900,-3.93700800,-0.50750490,0.00790477
-6.04571470,1.01501000,-3.93700800,-0.43061020,0.00787402
-5.96571470,0.53826270,-3.92162900,-0.30757870,0.00784326
-5.88571470,0.15378940,-3.92162900,-0.12303150,0.00784326
-5.80571470,-0.12303150,-3.93700800,0.13841040,0.00784326
-5.72571470,-0.27682080,-3.96776600,0.46136810,0.00784326
-5.64571469,-0.35371550,-4.02928100,0.83046260,0.00787402
-5.56571469,-0.35371550,-4.10617600,1.27645200,0.00790477
-5.48571469,-0.30757870,-4.18307100,1.73782000,0.00790477
-5.40571469,-0.23068400,-4.25996500,2.21456700,0.00790477
-5.32571469,-0.16916830,-4.29072300,2.67593500,0.00787402
-5.24571469,-0.09227362,-4.27534400,3.10654500,0.00787402
-5.16571469,-0.04613681,-4.18307100,3.49101900,0.00784326
-5.08571469,-0.01537894,-4.02928100,3.79859700,0.00784326
-5.00571469,0.00000000,-3.79859700,4.02928100,0.00787402
-4.92571469,0.01537894,-3.49101900,4.18307100,0.00793553
-4.84571468,0.00000000,-3.10654500,4.27534400,0.00805856
-4.76571468,0.00000000,-2.67593500,4.29072300,0.00821235
-4.68571468,0.00000000,-2.21456700,4.25996500,0.00836614
-4.60571468,0.00000000,-1.73782000,4.18307100,0.00851993
-4.52571468,0.00000000,-1.26107300,4.10617600,0.00858145
-4.44571468,0.00000000,-0.83046260,4.02928100,0.00855069
-4.36571468,0.01537894,-0.44598910,3.96776600,0.00839690
-4.28571468,0.00000000,-0.12303150,3.92162900,0.00805856
-4.20571468,-0.01537894,0.10765260,3.92162900,0.00756644
-4.12571467,-0.04613681,0.26144190,3.96776600,0.00688976
-4.04571467,-0.09227362,0.33833660,4.02928100,0.00602854
-3.96571467,-0.16916830,0.33833660,4.10617600,0.00501353
-3.88571467,-0.23068400,0.30757870,4.18307100,0.00396777
-3.80571467,-0.30757870,0.23068400,4.25996500,0.00286048
-3.72571467,-0.35371550,0.16916830,4.29072300,0.00184547
-3.64571467,-0.35371550,0.09227362,4.27534400,0.00098425
-3.56571467,-0.27682080,0.04613681,4.18307100,0.00036909
-3.48571467,-0.12303150,0.01537894,4.02928100,0.00003076
-3.40571466,0.15378940,0.00000000,3.79859700,0.00003076
-3.32571466,0.53826270,-0.01537894,3.49101900,0.00036909
-3.24571466,1.01501000,0.00000000,3.10654500,0.00098425
-3.16571466,1.59940900,0.00000000,2.67593500,0.00184547
-3.08571466,2.21456700,0.00000000,2.21456700,0.00286048
-3.00571466,2.82972400,0.00000000,1.73782000,0.00396777
-2.92571466,3.36798700,0.00000000,1.27645200,0.00501353
-2.84571466,3.78321800,0.00000000,0.83046260,0.00602854
-2.76571466,4.01390200,-0.01537894,0.46136810,0.00688976
-2.68571466,4.01390200,0.00000000,0.13841040,0.00756644
-2.60571465,3.76783900,0.01537894,-0.12303150,0.00805856
-2.52571465,3.26033400,0.04613681,-0.30757870,0.00839690
-2.44571465,2.52214600,0.09227362,-0.43061020,0.00855069
-2.36571465,1.58403000,0.16916830,-0.50750490,0.00858145
-2.28571465,0.53826270,0.23068400,-0.53826270,0.00851993
-2.20571465,-0.53826270,0.30757870,-0.53826270,0.00836614
-2.12571465,-1.58403000,0.33833660,-0.50750490,0.00821235
-2.04571465,-2.52214600,0.33833660,-0.43061020,0.00805856
-1.96571465,-3.26033400,0.26144190,-0.30757870,0.00793553
-1.88571464,-3.76783900,0.10765260,-0.12303150,0.00784326
-1.80571464,-4.01390200,-0.12303150,0.13841040,0.00784326
-1.72571464,-4.01390200,-0.44598910,0.46136810,0.00793553
-1.64571464,-3.78321800,-0.83046260,0.83046260,0.00805856
-1.56571464,-3.36798700,-1.26107300,1.27645200,0.00821235
-1.48571464,-2.82972400,-1.73782000,1.73782000,0.00836614
-1.40571464,-2.21456700,-2.21456700,2.21456700,0.00851993
-1.32571464,-1.59940900,-2.67593500,2.73745100,0.00858145
-1.24571464,-1.01501000,-3.10654500,3.33722900,0.00855069
-1.16571463,-0.53826270,-3.49101900,3.81397600,0.00839690
-1.08571463,-0.15378940,-3.79859700,4.01390200,0.00805856
-1.00571463,0.12303150,-4.02928100,3.67556500,0.00756644
-0.92571463,0.27682080,-4.18307100,2.67593500,0.00688976
-0.84571463,0.35371550,-4.27534400,0.95349410,0.00602854
-0.76571463,0.35371550,-4.29072300,-1.39948300,0.00501353
-0.68571463,0.30757870,-4.25996500,-4.02928100,0.00396777
-0.60571463,0.23068400,-4.18307100,-6.45915300,0.00286048
-0.52571463,0.15378940,-4.10617600,-7.88939400,0.00184547
-0.44571463,0.07689468,-4.02928100,-7.55105800,0.00098425
-0.36571462,0.03075787,-3.96776600,-4.92125900,0.00036909
-0.28571462,0.00000000,-3.92162900,0.30757870,0.00003076
-0.20571462,0.01537894,-3.92162900,8.16621500,0.00003076
-0.12571462,0.07689468,-3.96776600,18.43934000,0.00036909
-0.04571462,0.18454720,-4.02928100,30.71173000,0.00098425
0.03428538,0.32295760,-4.10617600,44.44513000,0.00184547
0.11428538,0.47674700,-4.18307100,59.10125000,0.00286048
0.19428538,0.61515740,-4.25996500,74.15723000,0.00396777
0.27428538,0.64591530,-4.29072300,89.25935000,0.00501353
0.35428539,0.52288380,-4.27534400,104.25380000,0.00602854
0.43428539,0.29219980,-4.18307100,119.07910000,0.00688976
0.51428539,0.07689468,-4.02928100,133.82750000,0.00756644
0.59428539,-0.03075787,-3.79859700,148.60670000,0.00805856
0.67428539,0.10765260,-3.49101900,163.52420000,0.00839690
0.75428539,0.52288380,-3.10654500,178.50330000,0.00855069
0.83428539,1.19955700,-2.67593500,193.29790000,0.00858145
0.91428539,1.96850400,-2.21456700,207.41570000,0.00851993
0.99428539,2.56828200,-1.73782000,220.13410000,0.00836614
1.07428539,2.44525100,-1.27645200,230.53020000,0.00821235
1.15428540,1.10728300,-0.86122040,237.63530000,0.00802781
1.23428540,-1.56865100,-0.47674700,240.49580000,0.00787402
1.31428540,-5.49028000,-0.15378940,238.40430000,0.00784326
1.39428540,-10.41154000,0.15378940,230.91470000,0.00790477
1.47428540,-15.96334000,0.43061020,217.98100000,0.00808932
1.55428540,-21.85347000,0.72281000,200.01840000,0.00842766
1.63428540,-27.85125000,0.99963080,177.87280000,0.00885827
1.71428540,-34.04897000,1.24569400,152.71280000,0.00931964
1.79428540,-40.75418000,1.46099900,125.98420000,0.00971949
1.87428541,-48.84350000,1.47637800,99.17876000,0.00984252
1.95428541,-59.27042000,1.21493600,73.77275000,0.00953494
2.03428541,-72.52706000,0.75356790,50.96579000,0.00888903
2.11428541,-88.79797000,0.23068400,31.69599000,0.00815084
2.19428541,-108.00630000,-0.18454720,16.40932000,0.00762795
2.27428541,-129.73670000,-0.32295760,5.18270100,0.00759720
2.35428541,-153.34340000,-0.09227362,-2.30684000,0.00821235
2.43428541,-178.10350000,0.44598910,-6.70521600,0.00938115
2.51428541,-203.29420000,1.09190400,-8.82750900,0.01073450
2.59428542,-228.36180000,1.49175700,-9.61183500,0.01165723
2.67428542,-253.21420000,0.87659940,-9.87327700,0.01091905
2.75428542,-277.85120000,-1.41486200,-10.11934000,0.00741265
2.83428542,-302.11920000,-5.67482800,-10.61147000,0.00064592
2.91428542,-325.78740000,-11.90330000,-11.34966000,-0.00947343
2.99428542,-348.62510000,-19.86959000,-12.16474000,-0.02257628
3.07428542,-370.34010000,-29.18922000,-12.81065000,-0.03810900
3.15428542,-390.62500000,-39.43159000,-13.01058000,-0.05533342
3.23428542,-409.18730000,-50.22760000,-12.61073000,-0.07363435
3.31428542,-425.75050000,-61.43885000,-11.59572000,-0.09270423
3.39428543,-440.12980000,-73.17297000,-10.16548000,-0.11263530
3.47428543,-452.38680000,-86.12204000,-8.62758300,-0.13425810
3.55428543,-462.59840000,-101.02420000,-7.12044700,-0.15864910
3.63428543,-470.68770000,-118.31020000,-5.72096400,-0.18642350
3.71428543,-476.51630000,-138.16440000,-4.49065000,-0.21804260
3.79428543,-479.93050000,-160.52530000,-3.39874500,-0.25356790
3.87428543,-480.79170000,-185.03940000,-2.42987200,-0.29259960
3.95428543,-479.02310000,-211.10670000,-1.55327200,-0.33430730
4.03428543,-474.57860000,-238.00440000,-0.70743110,-0.37752210
4.11428544,-467.59660000,-264.96370000,0.13841040,-0.42086000
4.19428544,-458.27690000,-291.26170000,0.95349410,-0.46278300
4.27428544,-447.01950000,-316.51390000,1.73782000,-0.50212230
4.35428544,-434.40880000,-340.45890000,2.46063000,-0.53770920
4.43428544,-420.95220000,-362.71220000,3.12192400,-0.56849780
4.51428544,-407.08040000,-382.96620000,3.67556500,-0.59371920
4.59428544,-393.08560000,-400.92890000,4.13693400,-0.61285070
4.67428544,-379.15230000,-416.40010000,4.47527100,-0.62573820
4.75428544,-365.21900000,-429.25690000,4.69057600,-0.63256650
4.83428545,-351.19340000,-439.43770000,4.79822800,-0.63376600
4.91428545,-336.82950000,-446.94260000,4.79822800,-0.62995200
4.99428545,-321.77350000,-451.84850000,4.73671200,-0.62180120
5.07428545,-305.76400000,-454.40140000,4.61368100,-0.61008240
5.15428545,-289.04710000,-454.83200000,4.47527100,-0.59553400
5.23428545,-272.03800000,-453.24800000,4.29072300,-0.57855560
5.31428545,-255.25960000,-449.68010000,4.06003900,-0.55945500
5.39428545,-239.20400000,-444.12830000,3.76783900,-0.53829350
5.47428545,-224.31720000,-436.51570000,3.38336600,-0.51510210
5.55428545,-210.75290000,-426.85780000,2.90661900,-0.48981910
5.63428546,-198.46520000,-415.13900000,2.35297700,-0.46250610
5.71428546,-187.19240000,-401.48250000,1.73782000,-0.43337850
5.79428546,-176.19650000,-386.01130000,1.12266200,-0.40274360
5.87428546,-164.81610000,-369.07910000,0.58439960,-0.37109380
5.95428546,-152.89740000,-351.20870000,0.15378940,-0.33944390
6.03428546,-140.48660000,-332.95400000,-0.09227362,-0.30877830
6.11428546,-127.86050000,-314.82220000,-0.09227362,-0.28008120
6.19428546,-115.40350000,-297.24410000,0.15378940,-0.25412150
6.27428546,-103.48490000,-280.45030000,0.67667320,-0.23139150
6.35428547,-92.38127000,-264.48690000,1.41486200,-0.21192180
6.43428547,-82.21579000,-249.24640000,2.35297700,-0.19537400
6.51428547,-72.97305000,-234.51340000,3.41412400,-0.18110240
6.59428547,-64.23782000,-219.78040000,4.49065000,-0.16799950
6.67428547,-55.64099000,-204.72440000,5.53641700,-0.15501970
6.75428547,-47.15182000,-189.46850000,6.44377400,-0.14194760
6.83428547,-38.90871000,-174.35100000,7.18196300,-0.12878320
6.91428547,-31.11159000,-159.84870000,7.67408900,-0.11595720
6.99428547,-24.00652000,-146.42290000,7.95091000,-0.10396160
7.07428548,-17.77805000,-134.47340000,7.98166800,-0.09331939
7.15428548,-12.59535000,-124.18490000,7.81250000,-0.08436885
7.23428548,-8.45841400,-115.49580000,7.47416300,-0.07720226
7.31428548,-5.27497500,-108.14470000,7.01279500,-0.07163509
7.39428548,-2.75283000,-101.43950000,6.47453200,-0.06699065
7.47428548,-0.58439960,-94.76500000,5.89013200,-0.06253076
7.55428548,1.24569400,-87.90600000,5.30573300,-0.05807086
7.63428548,2.70669300,-80.90858000,4.73671200,-0.05358022
7.71428548,3.66018700,-73.97268000,4.19845000,-0.04918184
7.79428548,3.99852300,-67.35974000,3.66018700,-0.04506028
7.87428549,3.59867100,-61.37733000,3.12192400,-0.04149237
7.95428549,2.41449300,-56.22539000,2.56828200,-0.03860113
8.03428549,0.47674700,-51.98080000,1.99926200,-0.03650960
8.11428549,-2.06077700,-48.55130000,1.43024100,-0.03512549
8.19428549,-4.92125900,-45.55241000,0.89197830,-0.03417200
8.27428549,-7.79712100,-42.55352000,0.41523130,-0.03334153
8.35428549,-10.51919000,-39.43159000,0.04613681,-0.03260335
8.43428549,-12.91831000,-36.20201000,-0.13841040,-0.03195743
8.51428549,-14.88681000,-32.95706000,-0.10765260,-0.03149606
8.59428550,-16.37857000,-29.86589000,0.16916830,-0.03134227
8.67428550,-17.40895000,-27.09768000,0.72281000,-0.03152682
8.75428550,-18.02411000,-24.79084000,1.52251500,-0.03211122
8.83428550,-18.30093000,-22.96075000,2.52214600,-0.03306472
8.91428550,-18.36245000,-21.54589000,3.64480800,-0.03435655
8.99428550,-18.30093000,-20.31557000,4.79822800,-0.03570989
9.07428550,-18.23942000,-18.96223000,5.87475300,-0.03694021
9.15428550,-18.30093000,-17.34744000,6.79749000,-0.03795522
9.23428550,-18.60851000,-15.39431000,7.45878400,-0.03869341
9.31428551,-19.20829000,-13.05672000,7.79712100,-0.03912402
9.39428551,-20.10027000,-10.41154000,7.79712100,-0.03927780
9.47428551,-21.26907000,-7.50492100,7.45878400,-0.03921629
9.55428551,-22.66855000,-4.47527100,6.79749000,-0.03897022
9.63428551,-24.19107000,-1.41486200,5.87475300,-0.03860113
9.71428551,-25.75972000,1.59940900,4.79822800,-0.03807825
9.79428551,-27.25147000,4.52140800,3.64480800,-0.03740158
9.87428551,-28.58944000,7.35113100,2.52214600,-0.03647884
9.95428551,-29.72748000,10.04245000,1.52251500,-0.03534080
10.03428551,-30.60408000,12.50307000,0.72281000,-0.03392594
10.11428552,-31.18848000,14.70226000,0.16916830,-0.03229577
10.19428552,-31.51144000,16.59387000,-0.10765260,-0.03041954
10.27428552,-31.57295000,18.14714000,-0.13841040,-0.02838952
10.35428552,-31.40379000,19.36208000,0.04613681,-0.02620571
10.43428552,-31.03469000,20.26944000,0.41523130,-0.02389887
10.51428552,-30.48105000,20.85384000,0.89197830,-0.02153051
10.59428552,-29.72748000,21.20755000,1.43024100,-0.01906988
10.67428552,-28.75861000,21.29983000,1.99926200,-0.01654774
10.75428552,-27.54367000,21.14604000,2.56828200,-0.01399483
10.83428553,-26.09805000,20.73080000,3.12192400,-0.01147269
10.91428553,-24.43713000,20.05413000,3.66018700,-0.00901206
10.99428553,-22.59166000,19.10064000,4.19845000,-0.00670522
11.07428553,-20.56164000,17.91646000,4.73671200,-0.00461368
11.15428553,-18.42397000,16.48622000,5.30573300,-0.00273745
11.23428553,-16.17864000,14.85605000,5.89013200,-0.00107653
11.31428553,-13.85642000,13.02596000,6.47453200,0.00039985
11.39428553,-11.47269000,11.05746000,7.01279500,0.00175320
11.47428553,-9.01205700,8.91978400,7.47416300,0.00310655
11.55428553,-6.45915300,6.59756400,7.81250000,0.00445989
