Time,Channel A,Channel B,Channel C,Channel D
(ns),(mV),(mV),(mV),(V)

-15.36744183,0.12303150,-4.01390200,3.92162900,0.00756644
-15.28744182,0.30757870,-3.98314500,3.92162900,0.00688976
-15.20744182,0.43061020,-3.69094500,3.93700800,0.00602854
-15.12744182,0.50750490,-3.21419800,3.95238700,0.00501353
-15.04744182,0.53826270,-2.58366100,3.95238700,0.00396777
-14.96744182,0.53826270,-1.90698800,3.95238700,0.00286048
-14.88744182,0.50750490,-1.24569400,3.95238700,0.00184547
-14.80744182,0.43061020,-0.69205210,3.93700800,0.00098425
-14.72744182,0.30757870,-0.27682080,3.92162900,0.00036909
-14.64744182,0.12303150,-0.04613681,3.92162900,0.00003076
-14.56744181,-0.13841040,-0.01537894,3.92162900,0.00003076
-14.48744181,-0.49212600,-0.16916830,3.92162900,0.00036909
-14.40744181,-0.93811510,-0.47674700,3.93700800,0.00098425
-14.32744181,-1.43024100,-0.92273620,3.95238700,0.00184547
-14.24744181,-1.96850400,-1.43024100,3.95238700,0.00286048
-14.16744181,-2.52214600,-1.98388300,3.95238700,0.00396777
-14.08744181,-3.01427100,-2.50676700,3.93700800,0.00501353
-14.00744181,-3.44488200,-3.01427100,3.93700800,0.00602854
-13.92744181,-3.73708200,-3.44488200,3.92162900,0.00688976
-13.84744180,-3.90625000,-3.78321800,3.92162900,0.00756644
-13.76744180,-3.90625000,-4.02928100,3.93700800,0.00805856
-13.68744180,-3.73708200,-4.19845000,3.96776600,0.00839690
-13.60744180,-3.44488200,-4.27534400,4.02928100,0.00855069
-13.52744180,-3.01427100,-4.29072300,4.10617600,0.00858145
-13.44744180,-2.52214600,-4.25996500,4.18307100,0.00851993
-13.36744180,-1.96850400,-4.18307100,4.25996500,0.00836614
-13.28744180,-1.43024100,-4.10617600,4.29072300,0.00821235
-13.20744180,-0.92273620,-4.02928100,4.27534400,0.00805856
-13.12744180,-0.49212600,-3.96776600,4.19845000,0.00793553
-13.04744179,-0.13841040,-3.93700800,4.02928100,0.00787402
-12.96744179,0.10765260,-3.92162900,3.78321800,0.00784326
-12.88744179,0.27682080,-3.92162900,3.44488200,0.00784326
-12.80744179,0.33833660,-3.93700800,3.01427100,0.00787402
-12.72744179,0.35371550,-3.93700800,2.50676700,0.00787402
-12.64744179,0.30757870,-3.95238700,1.98388300,0.00790477
-12.56744179,0.23068400,-3.95238700,1.43024100,0.00790477
-12.48744179,0.15378940,-3.93700800,0.92273620,0.00790477
-12.40744179,0.09227362,-3.93700800,0.49212600,0.00787402
-12.32744178,0.03075787,-3.92162900,0.16916830,0.00784326
-12.24744178,0.00000000,-3.92162900,0.01537894,0.00784326
-12.16744178,0.00000000,-3.93700800,0.03075787,0.00784326
-12.08744178,0.03075787,-3.96776600,0.23068400,0.00784326
-12.00744178,0.09227362,-4.02928100,0.58439960,0.00787402
-11.92744178,0.15378940,-4.10617600,1.09190400,0.00790477
-11.84744178,0.23068400,-4.18307100,1.67630400,0.00790477
-11.76744178,0.30757870,-4.25996500,2.27608300,0.00790477
-11.68744178,0.35371550,-4.29072300,2.86048200,0.00790477
-11.60744177,0.35371550,-4.27534400,3.35260800,0.00787402
-11.52744177,0.27682080,-4.19845000,3.70632400,0.00784326
-11.44744177,0.12303150,-4.02928100,3.89087100,0.00784326
-11.36744177,-0.15378940,-3.78321800,3.89087100,0.00784326
-11.28744177,-0.53826270,-3.44488200,3.70632400,0.00784326
-11.20744177,-1.01501000,-3.01427100,3.35260800,0.00787402
-11.12744177,-1.59940900,-2.50676700,2.86048200,0.00790477
-11.04744177,-2.21456700,-1.98388300,2.27608300,0.00790477
-10.96744177,-2.82972400,-1.43024100,1.67630400,0.00790477
-10.88744177,-3.36798700,-0.92273620,1.09190400,0.00790477
-10.80744176,-3.78321800,-0.49212600,0.58439960,0.00787402
-10.72744176,-4.01390200,-0.16916830,0.23068400,0.00784326
-10.64744176,-4.01390200,-0.01537894,0.03075787,0.00784326
-10.56744176,-3.76783900,-0.03075787,0.01537894,0.00784326
-10.48744176,-3.26033400,-0.23068400,0.16916830,0.00784326
-10.40744176,-2.52214600,-0.58439960,0.49212600,0.00787402
-10.32744176,-1.58403000,-1.09190400,0.92273620,0.00790477
-10.24744176,-0.53826270,-1.67630400,1.43024100,0.00790477
-10.16744176,0.53826270,-2.27608300,1.98388300,0.00790477
-10.08744175,1.59940900,-2.86048200,2.50676700,0.00787402
-10.00744175,2.52214600,-3.35260800,3.01427100,0.00787402
-9.92744175,3.26033400,-3.70632400,3.44488200,0.00784326
-9.84744175,3.76783900,-3.89087100,3.78321800,0.00784326
-9.76744175,3.99852300,-3.90625000,4.02928100,0.00787402
-9.68744175,3.96776600,-3.75246000,4.19845000,0.00793553
-9.60744175,3.69094500,-3.44488200,4.27534400,0.00805856
-9.52744175,3.19881900,-3.02965000,4.29072300,0.00821235
-9.44744175,2.58366100,-2.52214600,4.25996500,0.00836614
-9.36744174,1.90698800,-1.96850400,4.18307100,0.00851993
-9.28744174,1.24569400,-1.43024100,4.10617600,0.00858145
-9.20744174,0.67667320,-0.92273620,4.02928100,0.00855069
-9.12744174,0.24606300,-0.49212600,3.96776600,0.00836614
-9.04744174,0.03075787,-0.13841040,3.93700800,0.00805856
-8.96744174,0.03075787,0.10765260,3.92162900,0.00759720
-8.88744174,0.24606300,0.27682080,3.92162900,0.00698204
-8.80744174,0.67667320,0.33833660,3.93700800,0.00621309
-8.72744174,1.24569400,0.35371550,3.93700800,0.00535187
-8.64744174,1.90698800,0.30757870,3.95238700,0.00442913
-8.56744173,2.58366100,0.23068400,3.95238700,0.00347564
-8.48744173,3.19881900,0.16916830,3.93700800,0.00255290
-8.40744173,3.67556500,0.09227362,3.93700800,0.00166093
-8.32744173,3.96776600,0.04613681,3.92162900,0.00092274
-8.24744173,3.99852300,0.01537894,3.92162900,0.00027682
-8.16744173,3.78321800,0.00000000,3.93700800,-0.00024606
-8.08744173,3.30647100,-0.01537894,3.96776600,-0.00061516
-8.00744173,2.61441900,0.00000000,4.02928100,-0.00086122
-7.92744173,1.75319900,0.00000000,4.10617600,-0.00101501
-7.84744172,0.78432570,0.00000000,4.18307100,-0.00107653
-7.76744172,-0.24606300,0.00000000,4.25996500,-0.00107653
-7.68744172,-1.24569400,0.00000000,4.29072300,-0.00101501
-7.60744172,-2.16843000,0.00000000,4.29072300,-0.00086122
-7.52744172,-2.98351400,-0.01537894,4.21382900,-0.00061516
-7.44744172,-3.64480800,0.00000000,4.04466000,-0.00024606
-7.36744172,-4.15231300,0.01537894,3.76783900,0.00027682
-7.28744172,-4.50602900,0.04613681,3.39874500,0.00092274
-7.20744172,-4.70595500,0.09227362,2.92199800,0.00166093
-7.12744172,-4.79822800,0.16916830,2.35297700,0.00255290
-7.04744171,-4.79822800,0.23068400,1.73782000,0.00347564
-6.96744171,-4.73671200,0.30757870,1.12266200,0.00442913
-6.88744171,-4.61368100,0.35371550,0.58439960,0.00535187
-6.80744171,-4.45989200,0.33833660,0.15378940,0.00621309
-6.72744171,-4.27534400,0.27682080,-0.09227362,0.00698204
-6.64744171,-4.04466000,0.10765260,-0.09227362,0.00759720
-6.56744171,-3.78321800,-0.13841040,0.15378940,0.00805856
-6.48744171,-3.46026100,-0.49212600,0.67667320,0.00836614
-6.40744171,-3.09116600,-0.92273620,1.41486200,0.00855069
-6.32744170,-2.67593500,-1.43024100,2.35297700,0.00858145
-6.24744170,-2.21456700,-1.96850400,3.41412400,0.00851993
-6.16744170,-1.73782000,-2.52214600,4.49065000,0.00836614
-6.08744170,-1.26107300,-3.02965000,5.53641700,0.00821235
-6.00744170,-0.83046260,-3.44488200,6.45915300,0.00805856
-5.92744170,-0.44598910,-3.75246000,7.18196300,0.00793553
-5.84744170,-0.12303150,-3.90625000,7.68946800,0.00787402
-5.76744170,0.10765260,-3.89087100,7.93553100,0.00784326
-5.68744170,0.26144190,-3.70632400,7.93553100,0.00784326
-5.60744169,0.33833660,-3.35260800,7.72022600,0.00787402
-5.52744169,0.33833660,-2.86048200,7.32037400,0.00787402
-5.44744169,0.30757870,-2.27608300,6.78211100,0.00790477
-5.36744169,0.23068400,-1.67630400,6.16695300,0.00790477
-5.28744169,0.16916830,-1.09190400,5.53641700,0.00787402
-5.20744169,0.09227362,-0.58439960,4.95201700,0.00787402
-5.12744169,0.04613681,-0.21530510,4.45989200,0.00784326
-5.04744169,0.01537894,-0.03075787,4.07541800,0.00784326
-4.96744169,0.00000000,-0.03075787,3.79859700,0.00787402
-4.88744169,-0.01537894,-0.21530510,3.64480800,0.00793553
-4.80744168,0.00000000,-0.58439960,3.58329200,0.00805856
-4.72744168,0.00000000,-1.09190400,3.59867100,0.00821235
-4.64744168,0.00000000,-1.67630400,3.64480800,0.00836614
-4.56744168,0.00000000,-2.27608300,3.72170300,0.00851993
-4.48744168,0.00000000,-2.86048200,3.78321800,0.00858145
-4.40744168,0.00000000,-3.35260800,3.84473400,0.00855069
-4.32744168,-0.01537894,-3.70632400,3.89087100,0.00839690
-4.24744168,0.00000000,-3.89087100,3.90625000,0.00805856
-4.16744168,0.01537894,-3.89087100,3.92162900,0.00756644
-4.08744167,0.04613681,-3.70632400,3.93700800,0.00688976
-4.00744167,0.09227362,-3.35260800,3.93700800,0.00602854
-3.92744167,0.16916830,-2.86048200,3.95238700,0.00501353
-3.84744167,0.23068400,-2.27608300,3.95238700,0.00396777
-3.76744167,0.30757870,-1.67630400,3.95238700,0.00286048
-3.68744167,0.35371550,-1.09190400,3.95238700,0.00184547
-3.60744167,0.33833660,-0.58439960,3.93700800,0.00098425
-3.52744167,0.27682080,-0.21530510,3.92162900,0.00036909
-3.44744167,0.10765260,-0.03075787,3.92162900,0.00003076
-3.36744166,-0.13841040,-0.03075787,3.92162900,0.00003076
-3.28744166,-0.49212600,-0.21530510,3.92162900,0.00036909
-3.20744166,-0.92273620,-0.58439960,3.93700800,0.00098425
-3.12744166,-1.43024100,-1.09190400,3.95238700,0.00184547
-3.04744166,-1.96850400,-1.67630400,3.95238700,0.00286048
-2.96744166,-2.52214600,-2.27608300,3.95238700,0.00396777
-2.88744166,-3.01427100,-2.86048200,3.95238700,0.00501353
-2.80744166,-3.44488200,-3.35260800,3.93700800,0.00602854
-2.72744166,-3.73708200,-3.70632400,3.92162900,0.00688976
-2.64744166,-3.90625000,-3.89087100,3.92162900,0.00756644
-2.56744165,-3.90625000,-3.89087100,3.92162900,0.00805856
-2.48744165,-3.73708200,-3.70632400,3.92162900,0.00839690
-2.40744165,-3.44488200,-3.35260800,3.93700800,0.00855069
-2.32744165,-3.01427100,-2.86048200,3.95238700,0.00858145
-2.24744165,-2.52214600,-2.27608300,3.95238700,0.00851993
-2.16744165,-1.96850400,-1.67630400,3.95238700,0.00836614
-2.08744165,-1.43024100,-1.09190400,3.95238700,0.00821235
-2.00744165,-0.92273620,-0.58439960,3.93700800,0.00805856
-1.92744165,-0.49212600,-0.21530510,3.92162900,0.00793553
-1.84744164,-0.13841040,-0.03075787,3.92162900,0.00787402
-1.76744164,0.10765260,-0.03075787,3.92162900,0.00784326
-1.68744164,0.27682080,-0.21530510,3.92162900,0.00784326
-1.60744164,0.33833660,-0.58439960,3.93700800,0.00787402
-1.52744164,0.35371550,-1.09190400,3.95238700,0.00787402
-1.44744164,0.30757870,-1.67630400,3.95238700,0.00790477
-1.36744164,0.23068400,-2.27608300,3.95238700,0.00790477
-1.28744164,0.15378940,-2.86048200,4.02928100,0.00790477
-1.20744164,0.09227362,-3.35260800,4.21382900,0.00787402
-1.12744163,0.03075787,-3.70632400,4.33686000,0.00784326
-1.04744163,0.00000000,-3.89087100,4.18307100,0.00784326
-0.96744163,0.00000000,-3.90625000,3.49101900,0.00784326
-0.88744163,0.03075787,-3.75246000,2.07615600,0.00784326
-0.80744163,0.09227362,-3.44488200,-0.15378940,0.00787402
-0.72744163,0.15378940,-3.02965000,-3.02965000,0.00790477
-0.64744163,0.23068400,-2.52214600,-6.22846900,0.00790477
-0.56744163,0.30757870,-1.96850400,-9.13508800,0.00790477
-0.48744163,0.33833660,-1.43024100,-10.82677000,0.00790477
-0.40744163,0.32295760,-0.92273620,-10.39616000,0.00787402
-0.32744162,0.24606300,-0.49212600,-7.12044700,0.00784326
-0.24744162,0.09227362,-0.13841040,-0.61515740,0.00784326
-0.16744162,-0.10765260,0.10765260,9.28887700,0.00784326
-0.08744162,-0.35371550,0.27682080,22.39173000,0.00784326
-0.00744162,-0.64591530,0.33833660,38.21666000,0.00787402
0.07255838,-0.93811510,0.35371550,56.05622000,0.00790477
0.15255838,-1.26107300,0.30757870,75.12610000,0.00790477
0.23255838,-1.59940900,0.23068400,94.59583000,0.00790477
0.31255838,-2.03002000,0.15378940,113.77340000,0.00790477
0.39255839,-2.59904000,0.09227362,132.12040000,0.00787402
0.47255839,-3.19881900,0.03075787,149.29870000,0.00784326
0.55255839,-3.73708200,0.00000000,165.15440000,0.00784326
0.63255839,-4.04466000,0.00000000,179.68750000,0.00784326
0.71255839,-3.99852300,0.03075787,192.99030000,0.00784326
0.79255839,-3.55253400,0.09227362,205.10890000,0.00787402
0.87255839,-2.76820900,0.15378940,216.04330000,0.00790477
0.95255839,-1.81471400,0.23068400,225.59360000,0.00790477
1.03255839,-1.01501000,0.30757870,233.42150000,0.00790477
1.11255839,-0.96887300,0.33833660,238.95790000,0.00787402
1.19255840,-2.26070400,0.30757870,241.58770000,0.00784326
1.27255840,-5.02891200,0.21530510,240.64960000,0.00781250
1.35255840,-9.21198300,0.07689468,235.60530000,0.00781250
1.43255840,-14.56385000,-0.09227362,226.10110000,0.00787402
1.51255840,-20.68467000,-0.27682080,212.12170000,0.00802781
1.59255840,-27.25147000,-0.44598910,193.94380000,0.00824311
1.67255840,-34.01820000,-0.61515740,172.24410000,0.00855069
1.75255840,-41.00024000,-0.78432570,148.00690000,0.00885827
1.83255840,-48.52054000,-0.99963080,122.41630000,0.00913509
1.91255841,-57.44033000,-1.36872500,96.79502000,0.00916585
1.99255841,-68.71309000,-1.98388300,72.41941000,0.00882751
2.07255841,-82.83096000,-2.78358700,50.41215000,0.00830463
2.15255841,-100.07070000,-3.58329200,31.58834000,0.00790477
2.23255841,-120.30940000,-4.19845000,16.42470000,0.00793553
2.31255841,-143.19330000,-4.45989200,5.04429100,0.00867372
2.39255841,-168.04560000,-4.27534400,-2.84510300,0.01024237
2.47255841,-194.12830000,-3.67556500,-7.78174200,0.01254921
2.55255841,-220.65700000,-2.92199800,-10.50381000,0.01516363
2.63255842,-246.95490000,-2.39911400,-11.88792000,0.01731668
2.71255842,-272.79160000,-2.87586100,-12.73376000,0.01765502
2.79255842,-298.08990000,-5.09042800,-13.47195000,0.01497908
2.87255842,-322.51170000,-9.35039300,-14.31779000,0.00867372
2.95255842,-345.81080000,-15.70189000,-15.24053000,-0.00144562
3.03255842,-367.66420000,-23.94500000,-16.07099000,-0.01507136
3.11255842,-387.81060000,-33.67987000,-16.56311000,-0.03158834
3.19255842,-405.98850000,-44.47588000,-16.45546000,-0.05028912
3.27255842,-421.98260000,-55.93319000,-15.64038000,-0.07046629
3.35255842,-435.68520000,-67.83649000,-14.11786000,-0.09162771
3.43255843,-447.08110000,-80.26266000,-12.14936000,-0.11371190
3.51255843,-456.36990000,-93.76537000,-10.05782000,-0.13745690
3.59255843,-463.82870000,-109.05200000,-8.04318300,-0.16369340
3.67255843,-469.50350000,-126.47640000,-6.21309000,-0.19297490
3.75255843,-473.37900000,-146.19220000,-4.62906000,-0.22560900
3.83255843,-475.36290000,-168.12250000,-3.27571300,-0.26159570
3.91255843,-475.33220000,-191.94450000,-2.16843000,-0.30053520
3.99255843,-473.14830000,-217.11980000,-1.19955700,-0.34168920
4.07255843,-468.71920000,-242.92570000,-0.35371550,-0.38395050
4.15255844,-462.06010000,-268.67000000,0.43061020,-0.42602730
4.23255844,-453.20190000,-293.67610000,1.18417800,-0.46659700
4.31255844,-442.43660000,-317.55960000,1.89160900,-0.50461370
4.39255844,-430.24110000,-340.08980000,2.56828200,-0.53906250
4.47255844,-417.03060000,-360.91290000,3.16806100,-0.56905140
4.55255844,-403.20500000,-379.73670000,3.69094500,-0.59378080
4.63255844,-389.07170000,-396.31520000,4.12155500,-0.61285070
4.71255844,-374.83080000,-410.47920000,4.41375400,-0.62607650
4.79255844,-360.49760000,-422.10570000,4.58292300,-0.63355070
4.87255845,-345.99530000,-431.13310000,4.62906000,-0.63561150
4.95255845,-331.13930000,-437.56150000,4.56754400,-0.63281250
5.03255845,-315.60650000,-441.45240000,4.42913300,-0.62576900
5.11255845,-299.15110000,-442.97490000,4.27534400,-0.61512670
5.19255845,-282.00360000,-442.31360000,4.12155500,-0.60153170
5.27255845,-264.62540000,-439.54540000,4.01390200,-0.58541460
5.35255845,-247.53940000,-434.68560000,3.93700800,-0.56699070
5.43255845,-231.25310000,-427.70360000,3.90625000,-0.54641360
5.51255845,-216.19710000,-418.59920000,3.90625000,-0.52365280
5.59255845,-202.54060000,-407.34190000,3.92162900,-0.49873890
5.67255846,-190.23740000,-394.03910000,3.93700800,-0.47173350
5.75255846,-178.98010000,-378.82930000,3.95238700,-0.44285190
5.83255846,-168.06100000,-361.94330000,3.95238700,-0.41234000
5.91255846,-156.77290000,-343.75000000,3.93700800,-0.38069020
5.99255846,-144.94650000,-324.84920000,3.93700800,-0.34885580
6.07255846,-132.61260000,-305.85630000,3.92162900,-0.31775960
6.15255846,-120.03260000,-287.38620000,3.92162900,-0.28838580
6.23255846,-107.54490000,-269.86960000,3.93700800,-0.26144190
6.31255846,-95.50319000,-253.56790000,3.96776600,-0.23735850
6.39255847,-84.23043000,-238.52730000,4.02928100,-0.21625860
6.47255847,-73.83427000,-224.57860000,4.10617600,-0.19786540
6.55255847,-64.34547000,-211.38350000,4.18307100,-0.18159450
6.63255847,-55.41031000,-198.35750000,4.25996500,-0.16643090
6.71255847,-46.70583000,-184.99320000,4.29072300,-0.15151330
6.79255847,-38.27817000,-171.30600000,4.27534400,-0.13671880
6.87255847,-30.26575000,-157.46490000,4.19845000,-0.12220100
6.95255847,-22.94537000,-143.86990000,4.02928100,-0.10842150
7.03255847,-16.54774000,-130.90550000,3.78321800,-0.09596457
7.11255848,-11.30352000,-118.95610000,3.44488200,-0.08532234
7.19255848,-7.30499500,-108.25230000,3.01427100,-0.07680241
7.27255848,-4.53678600,-98.84042000,2.50676700,-0.07046629
7.35255848,-2.82972400,-90.56656000,1.98388300,-0.06597564
7.43255848,-1.78395700,-82.90784000,1.43024100,-0.06256151
7.51255848,-1.07652500,-75.41830000,0.92273620,-0.05936270
7.59255848,-0.53826270,-68.02103000,0.49212600,-0.05604085
7.67255848,-0.15378940,-60.82369000,0.18454720,-0.05253445
7.75255848,0.01537894,-54.08772000,0.01537894,-0.04890502
7.83255848,-0.10765260,-48.12069000,0.01537894,-0.04527559
7.91255849,-0.66129420,-43.13792000,0.18454720,-0.04195374
7.99255849,-1.70706200,-39.32394000,0.49212600,-0.03912402
8.07255849,-3.24495600,-36.66338000,0.92273620,-0.03687869
8.15255849,-5.19808000,-34.97170000,1.43024100,-0.03527928
8.23255849,-7.36651000,-33.80290000,1.98388300,-0.03404897
8.31255849,-9.55032000,-32.68024000,2.52214600,-0.03297244
8.39255849,-11.62648000,-31.40379000,3.01427100,-0.03211122
8.47255849,-13.48733000,-29.91203000,3.44488200,-0.03152682
8.55255849,-15.04060000,-28.28186000,3.78321800,-0.03131152
8.63255850,-16.25554000,-26.65170000,4.02928100,-0.03158834
8.71255850,-17.11676000,-25.15994000,4.15231300,-0.03248031
8.79255850,-17.67040000,-23.94500000,4.18307100,-0.03392594
8.87255850,-17.94722000,-23.08378000,4.13693400,-0.03592520
8.95255850,-18.05487000,-22.51476000,4.01390200,-0.03829355
9.03255850,-18.05487000,-22.03802000,3.89087100,-0.04075418
9.11255850,-18.07025000,-21.36134000,3.75246000,-0.04299951
9.19255850,-18.20866000,-20.33095000,3.67556500,-0.04484498
9.27255850,-18.56238000,-18.83920000,3.69094500,-0.04616757
9.35255851,-19.19291000,-16.85531000,3.81397600,-0.04690576
9.43255851,-20.10027000,-14.41006000,4.06003900,-0.04709030
9.51255851,-21.28445000,-11.56496000,4.44451300,-0.04669045
9.59255851,-22.66855000,-8.42765700,4.95201700,-0.04585999
9.67255851,-24.19107000,-5.09042800,5.53641700,-0.04462967
9.75255851,-25.75972000,-1.70706200,6.16695300,-0.04312254
9.83255851,-27.25147000,1.70706200,6.78211100,-0.04133858
9.91255851,-28.58944000,5.07504900,7.32037400,-0.03933932
9.99255851,-29.72748000,8.33538300,7.72022600,-0.03718627
10.07255851,-30.60408000,11.42655000,7.93553100,-0.03491019
10.15255852,-31.18848000,14.31779000,7.93553100,-0.03257259
10.23255852,-31.51144000,16.99372000,7.68946800,-0.03020423
10.31255852,-31.57295000,19.43897000,7.18196300,-0.02783588
10.39255852,-31.40379000,21.65354000,6.45915300,-0.02552903
10.47255852,-31.03469000,23.63743000,5.53641700,-0.02322219
10.55255852,-30.48105000,25.34449000,4.49065000,-0.02091535
10.63255852,-29.72748000,26.77473000,3.41412400,-0.01860851
10.71255852,-28.75861000,27.85125000,2.35297700,-0.01624016
10.79255852,-27.54367000,28.46641000,1.41486200,-0.01381029
10.87255853,-26.09805000,28.52793000,0.67667320,-0.01138041
10.95255853,-24.43713000,27.97429000,0.15378940,-0.00898130
11.03255853,-22.59166000,26.77473000,-0.09227362,-0.00673597
11.11255853,-20.56164000,24.89850000,-0.09227362,-0.00464444
11.19255853,-18.42397000,22.43787000,0.15378940,-0.00276821
11.27255853,-16.17864000,19.45435000,0.58439960,-0.00107653
11.35255853,-13.85642000,16.10175000,1.12266200,0.00039985
11.43255853,-11.47269000,12.48770000,1.73782000,0.00175320
11.51255853,-9.01205700,8.75061400,2.35297700,0.00310655
11.59255853,-6.47453200,4.99815400,2.92199800,0.00445989
