Time,Channel A,Channel B,Channel C,Channel D
(ns),(mV),(mV),(mV),(V)

-15.27741983,-0.01537894,-0.12303150,4.04466000,0.00805856
-15.19741982,-0.04613681,-0.44598910,4.36761800,0.00839690
-15.11741982,-0.10765260,-0.83046260,4.76747000,0.00855069
-15.03741982,-0.16916830,-1.26107300,5.21345900,0.00858145
-14.95741982,-0.23068400,-1.73782000,5.69020700,0.00851993
-14.87741982,-0.30757870,-2.21456700,6.16695300,0.00836614
-14.79741982,-0.35371550,-2.67593500,6.61294300,0.00821235
-14.71741982,-0.33833660,-3.10654500,7.04355200,0.00805856
-14.63741982,-0.27682080,-3.49101900,7.39726800,0.00793553
-14.55741982,-0.10765260,-3.79859700,7.70484700,0.00784326
-14.47741981,0.13841040,-4.02928100,7.96628900,0.00784326
-14.39741981,0.49212600,-4.18307100,8.16621500,0.00793553
-14.31741981,0.92273620,-4.27534400,8.30462600,0.00805856
-14.23741981,1.43024100,-4.29072300,8.39689900,0.00821235
-14.15741981,1.96850400,-4.25996500,8.44303500,0.00836614
-14.07741981,2.52214600,-4.18307100,8.44303500,0.00851993
-13.99741981,3.02965000,-4.10617600,8.39689900,0.00858145
-13.91741981,3.44488200,-4.02928100,8.30462600,0.00855069
-13.83741981,3.75246000,-3.96776600,8.16621500,0.00839690
-13.75741980,3.90625000,-3.93700800,7.96628900,0.00805856
-13.67741980,3.89087100,-3.92162900,7.70484700,0.00756644
-13.59741980,3.70632400,-3.92162900,7.39726800,0.00688976
-13.51741980,3.35260800,-3.93700800,7.04355200,0.00602854
-13.43741980,2.86048200,-3.93700800,6.61294300,0.00501353
-13.35741980,2.27608300,-3.95238700,6.16695300,0.00396777
-13.27741980,1.67630400,-3.95238700,5.69020700,0.00286048
-13.19741980,1.09190400,-3.95238700,5.21345900,0.00184547
-13.11741980,0.58439960,-3.93700800,4.76747000,0.00098425
-13.03741980,0.21530510,-3.92162900,4.38299700,0.00033834
-12.95741979,0.03075787,-3.92162900,4.06003900,0.00003076
-12.87741979,0.03075787,-3.92162900,3.79859700,0.00006152
-12.79741979,0.21530510,-3.92162900,3.62942900,0.00046137
-12.71741979,0.58439960,-3.93700800,3.50639700,0.00116880
-12.63741979,1.09190400,-3.95238700,3.44488200,0.00218381
-12.55741979,1.67630400,-3.95238700,3.41412400,0.00335261
-12.47741979,2.27608300,-3.95238700,3.41412400,0.00455217
-12.39741979,2.86048200,-3.95238700,3.42950300,0.00572097
-12.31741979,3.35260800,-3.93700800,3.50639700,0.00670522
-12.23741978,3.70632400,-3.92162900,3.61405000,0.00741265
-12.15741978,3.89087100,-3.92162900,3.79859700,0.00778174
-12.07741978,3.90625000,-3.92162900,4.06003900,0.00778174
-11.99741978,3.75246000,-3.92162900,4.42913300,0.00741265
-11.91741978,3.44488200,-3.93700800,4.87512300,0.00670522
-11.83741978,3.02965000,-3.95238700,5.38262700,0.00572097
-11.75741978,2.52214600,-3.95238700,5.92089000,0.00455217
-11.67741978,1.96850400,-3.95238700,6.47453200,0.00335261
-11.59741978,1.43024100,-3.93700800,6.96665800,0.00218381
-11.51741977,0.92273620,-3.93700800,7.38188900,0.00116880
-11.43741977,0.49212600,-3.92162900,7.67408900,0.00043061
-11.35741977,0.13841040,-3.92162900,7.82787800,0.00006152
-11.27741977,-0.10765260,-3.93700800,7.82787800,0.00006152
-11.19741977,-0.27682080,-3.96776600,7.67408900,0.00043061
-11.11741977,-0.33833660,-4.02928100,7.38188900,0.00116880
-11.03741977,-0.35371550,-4.10617600,6.96665800,0.00218381
-10.95741977,-0.30757870,-4.18307100,6.47453200,0.00335261
-10.87741977,-0.23068400,-4.25996500,5.92089000,0.00455217
-10.79741977,-0.16916830,-4.29072300,5.38262700,0.00572097
-10.71741976,-0.09227362,-4.27534400,4.85974400,0.00670522
-10.63741976,-0.04613681,-4.19845000,4.41375400,0.00741265
-10.55741976,-0.01537894,-4.02928100,4.06003900,0.00778174
-10.47741976,0.00000000,-3.78321800,3.81397600,0.00778174
-10.39741976,0.01537894,-3.44488200,3.66018700,0.00741265
-10.31741976,0.00000000,-3.01427100,3.59867100,0.00670522
-10.23741976,0.00000000,-2.50676700,3.59867100,0.00572097
-10.15741976,0.00000000,-1.98388300,3.64480800,0.00455217
-10.07741976,0.00000000,-1.43024100,3.72170300,0.00335261
-9.99741975,0.00000000,-0.92273620,3.78321800,0.00218381
-9.91741975,0.00000000,-0.49212600,3.84473400,0.00116880
-9.83741975,0.00000000,-0.16916830,3.89087100,0.00046137
-9.75741975,0.00000000,-0.01537894,3.90625000,0.00006152
-9.67741975,0.00000000,-0.03075787,3.92162900,0.00003076
-9.59741975,0.00000000,-0.23068400,3.93700800,0.00033834
-9.51741975,0.00000000,-0.58439960,3.93700800,0.00098425
-9.43741975,0.00000000,-1.09190400,3.95238700,0.00184547
-9.35741975,0.00000000,-1.67630400,3.95238700,0.00286048
-9.27741974,0.00000000,-2.27608300,3.95238700,0.00396777
-9.19741974,0.00000000,-2.86048200,3.95238700,0.00501353
-9.11741974,0.00000000,-3.33722900,3.93700800,0.00602854
-9.03741974,-0.01537894,-3.69094500,3.92162900,0.00688976
-8.95741974,0.00000000,-3.89087100,3.92162900,0.00756644
-8.87741974,0.01537894,-3.92162900,3.92162900,0.00805856
-8.79741974,0.04613681,-3.79859700,3.92162900,0.00839690
-8.71741974,0.09227362,-3.53715500,3.93700800,0.00855069
-8.63741974,0.16916830,-3.18344000,3.95238700,0.00858145
-8.55741974,0.23068400,-2.75283000,3.95238700,0.00851993
-8.47741973,0.30757870,-2.27608300,3.95238700,0.00836614
-8.39741973,0.35371550,-1.78395700,3.93700800,0.00821235
-8.31741973,0.33833660,-1.26107300,3.93700800,0.00805856
-8.23741973,0.27682080,-0.75356790,3.92162900,0.00793553
-8.15741973,0.10765260,-0.24606300,3.92162900,0.00787402
-8.07741973,-0.13841040,0.24606300,3.93700800,0.00784326
-7.99741973,-0.49212600,0.75356790,3.96776600,0.00784326
-7.91741973,-0.92273620,1.26107300,4.02928100,0.00787402
-7.83741973,-1.43024100,1.78395700,4.10617600,0.00787402
-7.75741972,-1.96850400,2.27608300,4.18307100,0.00790477
-7.67741972,-2.52214600,2.75283000,4.25996500,0.00790477
-7.59741972,-3.01427100,3.18344000,4.29072300,0.00790477
-7.51741972,-3.42950300,3.52177600,4.27534400,0.00787402
-7.43741972,-3.73708200,3.76783900,4.19845000,0.00784326
-7.35741972,-3.89087100,3.90625000,4.02928100,0.00784326
-7.27741972,-3.90625000,3.92162900,3.78321800,0.00784326
-7.19741972,-3.78321800,3.81397600,3.44488200,0.00784326
-7.11741972,-3.53715500,3.62942900,3.01427100,0.00787402
-7.03741972,-3.18344000,3.33722900,2.50676700,0.00790477
-6.95741971,-2.75283000,2.99889300,1.98388300,0.00790477
-6.87741971,-2.27608300,2.58366100,1.43024100,0.00790477
-6.79741971,-1.78395700,2.12229300,0.92273620,0.00790477
-6.71741971,-1.27645200,1.59940900,0.49212600,0.00787402
-6.63741971,-0.76894680,1.01501000,0.18454720,0.00784326
-6.55741971,-0.26144190,0.35371550,0.01537894,0.00784326
-6.47741971,0.26144190,-0.38447340,0.01537894,0.00784326
-6.39741971,0.79970470,-1.19955700,0.18454720,0.00784326
-6.31741971,1.36872500,-2.09153500,0.49212600,0.00787402
-6.23741970,1.93774600,-3.04502900,0.92273620,0.00790477
-6.15741970,2.52214600,-4.01390200,1.43024100,0.00790477
-6.07741970,3.06040800,-4.96739600,1.98388300,0.00790477
-5.99741970,3.52177600,-5.85937500,2.50676700,0.00787402
-5.91741970,3.87549200,-6.64370100,2.99889300,0.00787402
-5.83741970,4.04466000,-7.27423700,3.42950300,0.00784326
-5.75741970,4.01390200,-7.70484700,3.78321800,0.00784326
-5.67741970,3.76783900,-7.92015200,4.04466000,0.00787402
-5.59741970,3.29109200,-7.92015200,4.24458600,0.00793553
-5.51741969,2.59904000,-7.70484700,4.36761800,0.00805856
-5.43741969,1.75319900,-7.30499500,4.45989200,0.00821235
-5.35741969,0.78432570,-6.78211100,4.49065000,0.00836614
-5.27741969,-0.24606300,-6.16695300,4.49065000,0.00851993
-5.19741969,-1.24569400,-5.53641700,4.45989200,0.00858145
-5.11741969,-2.18380900,-4.95201700,4.36761800,0.00855069
-5.03741969,-2.99889300,-4.45989200,4.24458600,0.00836614
-4.95741969,-3.66018700,-4.07541800,4.04466000,0.00805856
-4.87741969,-4.13693400,-3.79859700,3.78321800,0.00759720
-4.79741969,-4.45989200,-3.64480800,3.42950300,0.00698204
-4.71741968,-4.61368100,-3.58329200,2.99889300,0.00621309
-4.63741968,-4.62906000,-3.59867100,2.50676700,0.00535187
-4.55741968,-4.56754400,-3.64480800,1.98388300,0.00442913
-4.47741968,-4.42913300,-3.72170300,1.43024100,0.00347564
-4.39741968,-4.27534400,-3.78321800,0.92273620,0.00255290
-4.31741968,-4.12155500,-3.84473400,0.49212600,0.00166093
-4.23741968,-3.99852300,-3.89087100,0.18454720,0.00092274
-4.15741968,-3.93700800,-3.90625000,0.01537894,0.00027682
-4.07741968,-3.92162900,-3.92162900,0.01537894,-0.00024606
-3.99741967,-3.95238700,-3.93700800,0.18454720,-0.00061516
-3.91741967,-4.01390200,-3.93700800,0.49212600,-0.00086122
-3.83741967,-4.10617600,-3.95238700,0.92273620,-0.00101501
-3.75741967,-4.18307100,-3.95238700,1.43024100,-0.00107653
-3.67741967,-4.25996500,-3.95238700,1.98388300,-0.00107653
-3.59741967,-4.29072300,-3.95238700,2.50676700,-0.00101501
-3.51741967,-4.27534400,-3.93700800,3.01427100,-0.00086122
-3.43741967,-4.18307100,-3.92162900,3.44488200,-0.00061516
-3.35741967,-4.02928100,-3.92162900,3.78321800,-0.00024606
-3.27741966,-3.79859700,-3.92162900,4.02928100,0.00027682
-3.19741966,-3.49101900,-3.92162900,4.19845000,0.00098425
-3.11741966,-3.10654500,-3.93700800,4.27534400,0.00187623
-3.03741966,-2.67593500,-3.95238700,4.29072300,0.00286048
-2.95741966,-2.21456700,-3.95238700,4.25996500,0.00393701
-2.87741966,-1.73782000,-3.95238700,4.18307100,0.00504429
-2.79741966,-1.26107300,-3.93700800,4.10617600,0.00605930
-2.71741966,-0.83046260,-3.92162900,4.02928100,0.00688976
-2.63741966,-0.44598910,-3.90625000,3.96776600,0.00750492
-2.55741966,-0.12303150,-3.90625000,3.93700800,0.00781250
-2.47741965,0.10765260,-3.93700800,3.92162900,0.00778174
-2.39741965,0.26144190,-4.01390200,3.92162900,0.00741265
-2.31741965,0.33833660,-4.12155500,3.93700800,0.00670522
-2.23741965,0.33833660,-4.27534400,3.93700800,0.00572097
-2.15741965,0.30757870,-4.42913300,3.95238700,0.00455217
-2.07741965,0.23068400,-4.56754400,3.95238700,0.00335261
-1.99741965,0.16916830,-4.62906000,3.95238700,0.00218381
-1.91741965,0.10765260,-4.61368100,3.95238700,0.00116880
-1.83741965,0.04613681,-4.45989200,3.95238700,0.00046137
-1.75741964,0.01537894,-4.13693400,3.93700800,0.00006152
-1.67741964,-0.01537894,-3.66018700,3.89087100,0.00003076
-1.59741964,-0.04613681,-2.99889300,3.79859700,0.00033834
-1.51741964,-0.10765260,-2.18380900,3.64480800,0.00098425
-1.43741964,-0.16916830,-1.24569400,3.46026100,0.00184547
-1.35741964,-0.23068400,-0.24606300,3.24495600,0.00286048
-1.27741964,-0.30757870,0.78432570,3.04502900,0.00396777
-1.19741964,-0.35371550,1.75319900,3.02965000,0.00501353
-1.11741964,-0.33833660,2.61441900,3.32185000,0.00599779
-1.03741963,-0.27682080,3.30647100,3.73708200,0.00685901
-0.95741963,-0.10765260,3.76783900,3.98314500,0.00756644
-0.87741963,0.13841040,4.01390200,3.69094500,0.00808932
-0.79741963,0.49212600,3.99852300,2.58366100,0.00848917
-0.71741963,0.92273620,3.78321800,0.53826270,0.00873524
-0.63741963,1.43024100,3.36798700,-2.30684000,0.00891978
-0.55741963,1.96850400,2.82972400,-5.52103800,0.00898130
-0.47741963,2.52214600,2.21456700,-8.27386800,0.00898130
-0.39741963,3.01427100,1.59940900,-9.38115100,0.00891978
-0.31741963,3.41412400,1.01501000,-7.59719500,0.00873524
-0.23741962,3.70632400,0.53826270,-1.84547200,0.00848917
-0.15741962,3.87549200,0.15378940,8.58144600,0.00808932
-0.07741962,3.93700800,-0.12303150,24.05266000,0.00756644
0.00258038,3.92162900,-0.27682080,44.39899000,0.00685901
0.08258038,3.81397600,-0.35371550,68.98991000,0.00599779
0.16258038,3.67556500,-0.35371550,96.77965000,0.00501353
0.24258038,3.46026100,-0.30757870,126.36870000,0.00396777
0.32258038,3.19881900,-0.23068400,156.23460000,0.00286048
0.40258038,2.73745100,-0.16916830,184.88560000,0.00184547
0.48258039,2.04539800,-0.10765260,210.96820000,0.00098425
0.56258039,1.19955700,-0.04613681,233.43690000,0.00036909
0.64258039,0.35371550,-0.01537894,251.55330000,0.00003076
0.72258039,-0.27682080,0.01537894,265.04060000,0.00003076
0.80258039,-0.53826270,0.04613681,273.92960000,0.00036909
0.88258039,-0.33833660,0.10765260,278.58940000,0.00098425
0.96258039,0.26144190,0.16916830,279.54290000,0.00184547
1.04258039,1.03038900,0.23068400,277.40520000,0.00286048
1.12258039,1.55327200,0.30757870,272.71470000,0.00396777
1.20258039,1.06114600,0.33833660,265.90180000,0.00501353
1.28258040,-1.18417800,0.30757870,257.18190000,0.00596703
1.36258040,-5.45952300,0.21530510,246.67810000,0.00679749
1.44258040,-11.81102000,0.07689468,234.35960000,0.00750492
1.52258040,-19.99262000,-0.07689468,220.14950000,0.00818159
1.60258040,-29.61983000,-0.23068400,203.97080000,0.00882751
1.68258040,-40.24667000,-0.35371550,185.86980000,0.00950418
1.76258040,-51.48868000,-0.46136810,166.06180000,0.01021161
1.84258040,-63.17667000,-0.55364170,144.94650000,0.01088829
1.92258040,-75.38755000,-0.69205210,123.09300000,0.01141117
2.00258041,-88.81336000,-1.04576800,101.20880000,0.01150344
2.08258041,-104.20770000,-1.72244100,80.07812000,0.01088829
2.16258041,-121.89340000,-2.61441900,60.48536000,0.00978100
2.24258041,-142.02450000,-3.53715500,43.06102000,0.00845842
2.32258041,-164.44700000,-4.22920700,28.23573000,0.00735113
2.40258041,-188.74570000,-4.47527100,16.22478000,0.00682825
2.48258041,-214.33620000,-4.15231300,6.95127900,0.00716658
2.56258041,-240.51120000,-3.32185000,0.07689468,0.00818159
2.64258041,-266.60920000,-2.29146100,-4.85974400,0.00947343
2.72258042,-292.10750000,-1.56865100,-8.55068800,0.01008858
2.80258042,-316.85220000,-2.10691400,-11.64185000,0.00851993
2.88258042,-340.85870000,-4.82898600,-14.37930000,0.00313730
2.96258042,-363.89640000,-10.21161000,-16.82456000,-0.00692052
3.04258042,-385.74980000,-18.40859000,-18.83920000,-0.02199188
3.12258042,-406.17310000,-29.28149000,-20.19254000,-0.04192298
3.20258042,-424.85850000,-42.44586000,-20.63853000,-0.06612943
3.28258042,-441.56000000,-57.33267000,-20.00800000,-0.09365772
3.36258042,-456.03160000,-73.38828000,-18.27018000,-0.12352360
3.44258042,-468.10410000,-90.18208000,-15.56348000,-0.15474290
3.52258043,-477.73130000,-107.49880000,-12.30315000,-0.18679260
3.60258043,-485.03630000,-125.66130000,-8.96592000,-0.21970350
3.68258043,-490.23430000,-145.08490000,-5.81323800,-0.25384470
3.76258043,-493.38700000,-165.96950000,-3.07578700,-0.28933930
3.84258043,-494.46360000,-188.33040000,-0.87659940,-0.32621800
3.92258043,-493.43310000,-212.06020000,0.73818890,-0.36441930
4.00258043,-490.20360000,-236.85100000,1.84547200,-0.40360480
4.08258043,-484.71330000,-262.22620000,2.50676700,-0.44319020
4.16258043,-476.90080000,-287.58610000,2.86048200,-0.48237570
4.24258044,-466.85840000,-312.34620000,3.02965000,-0.52017720
4.32258044,-454.67830000,-335.90670000,3.09116600,-0.55542570
4.40258044,-440.63730000,-357.99090000,3.13730300,-0.58726010
4.48258044,-425.27370000,-378.36800000,3.24495600,-0.61475760
4.56258044,-409.11050000,-396.69960000,3.42950300,-0.63699560
4.64258044,-392.62420000,-412.67840000,3.73708200,-0.65323570
4.72258044,-376.21490000,-426.04270000,4.13693400,-0.66304750
4.80258044,-360.08240000,-436.62340000,4.62906000,-0.66627710
4.88258044,-344.28820000,-444.31280000,5.16732200,-0.66310900
4.96258045,-328.70940000,-449.11110000,5.70558500,-0.65403540
5.04258045,-313.14590000,-451.12570000,6.22846900,-0.63979450
5.12258045,-297.12100000,-450.52590000,6.70521600,-0.62127830
5.20258045,-280.31190000,-447.63470000,7.13582600,-0.59950170
5.28258045,-262.91830000,-442.80570000,7.47416300,-0.57547980
5.36258045,-245.29400000,-436.26970000,7.72022600,-0.54992000
5.44258045,-228.00810000,-428.19570000,7.82787800,-0.52340670
5.52258045,-211.56800000,-418.67610000,7.81250000,-0.49627830
5.60258045,-196.41980000,-407.72630000,7.65871000,-0.46862700
5.68258045,-182.77870000,-395.31560000,7.36651000,-0.44045280
5.76258046,-170.61390000,-381.44380000,6.96665800,-0.41163260
5.84258046,-159.64870000,-366.14170000,6.47453200,-0.38213580
5.92258046,-149.12950000,-349.45560000,5.92089000,-0.35187010
6.00258046,-138.36430000,-331.55450000,5.38262700,-0.32101990
6.08258046,-127.18380000,-312.94600000,4.85974400,-0.29029280
6.16258046,-115.60350000,-294.13750000,4.41375400,-0.26048840
6.24258046,-103.88470000,-275.66740000,4.06003900,-0.23262180
6.32258046,-92.33513000,-258.01240000,3.81397600,-0.20743110
6.40258046,-81.32381000,-241.44930000,3.66018700,-0.18550070
6.48258047,-71.12758000,-226.07040000,3.59867100,-0.16692300
6.56258047,-61.88484000,-211.76790000,3.59867100,-0.15148250
6.64258047,-53.58022000,-198.28060000,3.64480800,-0.13862570
6.72258047,-45.87537000,-185.03940000,3.72170300,-0.12712230
6.80258047,-38.43196000,-171.61360000,3.78321800,-0.11601870
6.88258047,-31.26538000,-158.06470000,3.84473400,-0.10494590
6.96258047,-24.51402000,-144.60810000,3.89087100,-0.09396531
7.04258047,-18.42397000,-131.65910000,3.90625000,-0.08341535
7.12258047,-13.21051000,-119.64810000,3.92162900,-0.07378814
7.20258048,-9.07357200,-108.91360000,3.93700800,-0.06554503
7.28258048,-6.12081600,-99.67088000,3.93700800,-0.05902436
7.36258048,-4.32148100,-91.90453000,3.95238700,-0.05428765
7.44258048,-3.49101900,-85.41461000,3.95238700,-0.05118110
7.52258048,-3.27571300,-79.61675000,3.95238700,-0.04899729
7.60258048,-3.30647100,-73.94193000,3.95238700,-0.04699803
7.68258048,-3.42950300,-68.26710000,3.93700800,-0.04493725
7.76258048,-3.56791300,-62.66916000,3.92162900,-0.04272269
7.84258048,-3.78321800,-57.36343000,3.92162900,-0.04038509
7.92258048,-4.12155500,-52.64210000,3.92162900,-0.03810900
8.00258049,-4.67519700,-48.73585000,3.92162900,-0.03604823
8.08258049,-5.55179600,-45.81385000,3.93700800,-0.03438730
8.16258049,-6.76673200,-43.90686000,3.95238700,-0.03321850
8.24258049,-8.25848900,-42.81496000,3.95238700,-0.03254183
8.32258049,-9.88865600,-42.12291000,3.95238700,-0.03211122
8.40258049,-11.50344000,-41.32320000,3.95238700,-0.03180364
8.48258049,-12.99520000,-40.16978000,3.93700800,-0.03152682
8.56258049,-14.28703000,-38.55499000,3.92162900,-0.03137303
8.64258049,-15.30204000,-36.47884000,3.92162900,-0.03131152
8.72258050,-15.99409000,-34.04897000,3.92162900,-0.03149606
8.80258050,-16.34781000,-31.41917000,3.92162900,-0.03189592
8.88258050,-16.39395000,-28.71247000,3.93700800,-0.03254183
8.96258050,-16.17864000,-26.08268000,3.95238700,-0.03343381
9.04258050,-15.77879000,-23.54515000,3.95238700,-0.03447958
9.12258050,-15.30204000,-21.02301000,3.95238700,-0.03558686
9.20258050,-14.88681000,-18.37783000,3.93700800,-0.03657111
9.28258050,-14.65613000,-15.56348000,3.93700800,-0.03746309
9.36258050,-14.76378000,-12.57997000,3.92162900,-0.03823204
9.44258051,-15.27128000,-9.44266700,3.92162900,-0.03890871
9.52258051,-16.22478000,-6.22846900,3.93700800,-0.03952387
9.60258051,-17.63964000,-2.96813500,3.96776600,-0.04016978
9.68258051,-19.42360000,0.26144190,4.02928100,-0.04081570
9.76258051,-21.49975000,3.38336600,4.10617600,-0.04143086
9.84258051,-23.71432000,6.39763700,4.18307100,-0.04201525
9.92258051,-25.88275000,9.25812000,4.25996500,-0.04241511
10.00258051,-27.85125000,11.96481000,4.29072300,-0.04253814
10.08258051,-29.48142000,14.48696000,4.29072300,-0.04219980
10.16258051,-30.63484000,16.76304000,4.21382900,-0.04140010
10.24258052,-31.26538000,18.74692000,4.04466000,-0.04007751
10.32258052,-31.35765000,20.39247000,3.76783900,-0.03823204
10.40258052,-30.89628000,21.69968000,3.39874500,-0.03586368
10.48258052,-29.98893000,22.65317000,2.92199800,-0.03309547
10.56258052,-28.68172000,23.25295000,2.35297700,-0.02995817
10.64258052,-27.06693000,23.54515000,1.73782000,-0.02657480
10.72258052,-25.22145000,23.54515000,1.12266200,-0.02303765
10.80258052,-23.22219000,23.26833000,0.56902060,-0.01940822
10.88258052,-21.08452000,22.65317000,0.15378940,-0.01584031
10.96258053,-18.91609000,21.71506000,-0.09227362,-0.01242618
11.04258053,-16.74766000,20.40785000,-0.09227362,-0.00928888
11.12258053,-14.64075000,18.73154000,0.16916830,-0.00652067
11.20258053,-12.62611000,16.71690000,0.70743110,-0.00415231
11.28258053,-10.70374000,14.39468000,1.52251500,-0.00224533
11.36258053,-8.85826700,11.81102000,2.52214600,-0.00070743
11.44258053,-7.08968900,9.01205700,3.64480800,0.00052288
11.52258053,-5.30573300,6.09005900,4.79822800,0.00163017
11.60258053,-3.47564000,3.06040800,5.87475300,0.00273745
11.68258053,-1.52251500,-0.04613681,6.79749000,0.00396777
11.76258054,0.56902060,-3.16806100,7.45878400,0.00535187
