Time,Channel A,Channel B,Channel C,Channel D
(ns),(mV),(mV),(mV),(V)

-15.32549083,0.00000000,-3.92162900,7.95091000,0.00808932
-15.24549082,0.03075787,-3.96776600,7.98166800,0.00845842
-15.16549082,0.09227362,-4.02928100,7.81250000,0.00873524
-15.08549082,0.15378940,-4.10617600,7.47416300,0.00888903
-15.00549082,0.23068400,-4.18307100,7.01279500,0.00898130
-14.92549082,0.30757870,-4.25996500,6.47453200,0.00898130
-14.84549082,0.35371550,-4.29072300,5.89013200,0.00891978
-14.76549082,0.33833660,-4.27534400,5.30573300,0.00873524
-14.68549082,0.27682080,-4.18307100,4.72133400,0.00848917
-14.60549082,0.10765260,-4.02928100,4.18307100,0.00808932
-14.52549081,-0.13841040,-3.79859700,3.66018700,0.00756644
-14.44549081,-0.49212600,-3.49101900,3.16806100,0.00685901
-14.36549081,-0.92273620,-3.10654500,2.66055600,0.00599779
-14.28549081,-1.43024100,-2.67593500,2.16843000,0.00501353
-14.20549081,-1.96850400,-2.21456700,1.67630400,0.00396777
-14.12549081,-2.52214600,-1.73782000,1.19955700,0.00286048
-14.04549081,-3.02965000,-1.27645200,0.76894680,0.00184547
-13.96549081,-3.44488200,-0.83046260,0.39985230,0.00101501
-13.88549081,-3.75246000,-0.46136810,0.13841040,0.00039985
-13.80549080,-3.90625000,-0.13841040,0.01537894,0.00006152
-13.72549080,-3.89087100,0.12303150,0.03075787,0.00003076
-13.64549080,-3.70632400,0.30757870,0.19992620,0.00027682
-13.56549080,-3.35260800,0.43061020,0.50750490,0.00079970
-13.48549080,-2.86048200,0.50750490,0.92273620,0.00153789
-13.40549080,-2.27608300,0.53826270,1.43024100,0.00239911
-13.32549080,-1.67630400,0.53826270,1.98388300,0.00335261
-13.24549080,-1.09190400,0.50750490,2.50676700,0.00433686
-13.16549080,-0.58439960,0.43061020,3.01427100,0.00532111
-13.08549080,-0.23068400,0.30757870,3.44488200,0.00633612
-13.00549079,-0.03075787,0.12303150,3.78321800,0.00732037
-12.92549079,-0.01537894,-0.13841040,4.02928100,0.00836614
-12.84549079,-0.16916830,-0.46136810,4.19845000,0.00944267
-12.76549079,-0.49212600,-0.83046260,4.27534400,0.01061147
-12.68549079,-0.92273620,-1.27645200,4.29072300,0.01178027
-12.60549079,-1.43024100,-1.73782000,4.25996500,0.01294907
-12.52549079,-1.98388300,-2.21456700,4.18307100,0.01402559
-12.44549079,-2.50676700,-2.67593500,4.10617600,0.01494833
-12.36549079,-3.01427100,-3.10654500,4.02928100,0.01562500
-12.28549078,-3.44488200,-3.47564000,3.96776600,0.01596334
-12.20549078,-3.78321800,-3.78321800,3.93700800,0.01587106
-12.12549078,-4.02928100,-4.04466000,3.92162900,0.01537894
-12.04549078,-4.19845000,-4.22920700,3.92162900,0.01442544
-11.96549078,-4.27534400,-4.36761800,3.93700800,0.01307210
-11.88549078,-4.29072300,-4.44451300,3.93700800,0.01138041
-11.80549078,-4.25996500,-4.49065000,3.95238700,0.00947343
-11.72549078,-4.18307100,-4.49065000,3.95238700,0.00741265
-11.64549078,-4.10617600,-4.45989200,3.95238700,0.00541339
-11.56549077,-4.01390200,-4.36761800,3.93700800,0.00350640
-11.48549077,-3.95238700,-4.24458600,3.92162900,0.00187623
-11.40549077,-3.92162900,-4.04466000,3.92162900,0.00052288
-11.32549077,-3.93700800,-3.78321800,3.92162900,-0.00043061
-11.24549077,-3.99852300,-3.42950300,3.92162900,-0.00107653
-11.16549077,-4.12155500,-2.99889300,3.93700800,-0.00135335
-11.08549077,-4.27534400,-2.50676700,3.95238700,-0.00138410
-11.00549077,-4.42913300,-1.98388300,3.95238700,-0.00123032
-10.92549077,-4.56754400,-1.43024100,3.95238700,-0.00095349
-10.84549077,-4.62906000,-0.92273620,3.95238700,-0.00064592
-10.76549076,-4.61368100,-0.49212600,3.93700800,-0.00036909
-10.68549076,-4.45989200,-0.16916830,3.92162900,-0.00015379
-10.60549076,-4.13693400,-0.01537894,3.92162900,-0.00003076
-10.52549076,-3.66018700,-0.03075787,3.92162900,0.00000000
-10.44549076,-2.99889300,-0.23068400,3.92162900,-0.00006152
-10.36549076,-2.18380900,-0.58439960,3.93700800,-0.00015379
-10.28549076,-1.24569400,-1.09190400,3.95238700,-0.00030758
-10.20549076,-0.24606300,-1.67630400,3.95238700,-0.00046137
-10.12549076,0.78432570,-2.27608300,3.95238700,-0.00061516
-10.04549075,1.75319900,-2.86048200,3.95238700,-0.00067667
-9.96549075,2.59904000,-3.35260800,3.93700800,-0.00064592
-9.88549075,3.29109200,-3.70632400,3.92162900,-0.00049213
-9.80549075,3.76783900,-3.89087100,3.92162900,-0.00021531
-9.72549075,4.01390200,-3.90625000,3.92162900,0.00024606
-9.64549075,4.04466000,-3.75246000,3.92162900,0.00079970
-9.56549075,3.87549200,-3.44488200,3.93700800,0.00147638
-9.48549075,3.52177600,-3.02965000,3.95238700,0.00221457
-9.40549075,3.06040800,-2.52214600,3.95238700,0.00301427
-9.32549074,2.52214600,-1.96850400,3.95238700,0.00381398
-9.24549074,1.93774600,-1.43024100,3.93700800,0.00467520
-9.16549074,1.35334600,-0.92273620,3.93700800,0.00553642
-9.08549074,0.78432570,-0.49212600,3.92162900,0.00642840
-9.00549074,0.26144190,-0.13841040,3.92162900,0.00735113
-8.92549074,-0.24606300,0.10765260,3.93700800,0.00833538
-8.84549074,-0.72281000,0.27682080,3.96776600,0.00935039
-8.76549074,-1.18417800,0.33833660,4.02928100,0.01039616
-8.68549074,-1.61478800,0.35371550,4.10617600,0.01144193
-8.60549074,-2.04539800,0.30757870,4.18307100,0.01245694
-8.52549073,-2.44525100,0.23068400,4.25996500,0.01341043
-8.44549073,-2.82972400,0.16916830,4.29072300,0.01427165
-8.36549073,-3.19881900,0.09227362,4.27534400,0.01494833
-8.28549073,-3.52177600,0.04613681,4.19845000,0.01544045
-8.20549073,-3.79859700,0.01537894,4.02928100,0.01565576
-8.12549073,-4.02928100,0.00000000,3.78321800,0.01562500
-8.04549073,-4.22920700,-0.01537894,3.44488200,0.01531742
-7.96549073,-4.36761800,0.00000000,3.01427100,0.01473302
-7.88549073,-4.44451300,0.00000000,2.50676700,0.01393332
-7.80549072,-4.49065000,0.00000000,1.98388300,0.01294907
-7.72549072,-4.49065000,0.00000000,1.43024100,0.01184178
-7.64549072,-4.44451300,0.00000000,0.92273620,0.01076526
-7.56549072,-4.36761800,0.00000000,0.49212600,0.00971949
-7.48549072,-4.22920700,0.00000000,0.18454720,0.00882751
-7.40549072,-4.04466000,0.00000000,0.01537894,0.00812008
-7.32549072,-3.78321800,0.00000000,0.01537894,0.00762795
-7.24549072,-3.47564000,0.00000000,0.18454720,0.00732037
-7.16549072,-3.10654500,0.00000000,0.49212600,0.00719734
-7.08549072,-2.67593500,0.00000000,0.92273620,0.00719734
-7.00549071,-2.21456700,0.00000000,1.43024100,0.00728962
-6.92549071,-1.73782000,0.00000000,1.98388300,0.00744341
-6.84549071,-1.26107300,0.00000000,2.50676700,0.00756644
-6.76549071,-0.83046260,0.00000000,3.01427100,0.00765871
-6.68549071,-0.44598910,0.00000000,3.44488200,0.00775098
-6.60549071,-0.12303150,0.00000000,3.78321800,0.00781250
-6.52549071,0.10765260,0.00000000,4.02928100,0.00787402
-6.44549071,0.26144190,0.00000000,4.19845000,0.00796629
-6.36549071,0.33833660,0.00000000,4.27534400,0.00808932
-6.28549070,0.33833660,0.00000000,4.29072300,0.00821235
-6.20549070,0.30757870,0.00000000,4.25996500,0.00836614
-6.12549070,0.23068400,0.00000000,4.18307100,0.00851993
-6.04549070,0.15378940,0.00000000,4.10617600,0.00858145
-5.96549070,0.09227362,0.00000000,4.02928100,0.00855069
-5.88549070,0.03075787,-0.01537894,3.96776600,0.00839690
-5.80549070,0.00000000,0.00000000,3.93700800,0.00805856
-5.72549070,0.00000000,0.01537894,3.92162900,0.00756644
-5.64549070,0.03075787,0.04613681,3.92162900,0.00688976
-5.56549069,0.09227362,0.09227362,3.93700800,0.00602854
-5.48549069,0.15378940,0.16916830,3.93700800,0.00501353
-5.40549069,0.23068400,0.23068400,3.95238700,0.00396777
-5.32549069,0.30757870,0.30757870,3.95238700,0.00286048
-5.24549069,0.35371550,0.35371550,3.95238700,0.00184547
-5.16549069,0.33833660,0.33833660,3.93700800,0.00098425
-5.08549069,0.27682080,0.27682080,3.92162900,0.00033834
-5.00549069,0.10765260,0.10765260,3.92162900,0.00003076
-4.92549069,-0.13841040,-0.13841040,3.92162900,0.00006152
-4.84549069,-0.49212600,-0.49212600,3.92162900,0.00046137
-4.76549068,-0.92273620,-0.92273620,3.93700800,0.00116880
-4.68549068,-1.43024100,-1.43024100,3.95238700,0.00218381
-4.60549068,-1.96850400,-1.96850400,3.95238700,0.00335261
-4.52549068,-2.52214600,-2.52214600,3.95238700,0.00455217
-4.44549068,-3.02965000,-3.01427100,3.95238700,0.00572097
-4.36549068,-3.44488200,-3.44488200,3.93700800,0.00670522
-4.28549068,-3.75246000,-3.73708200,3.92162900,0.00741265
-4.20549068,-3.90625000,-3.90625000,3.92162900,0.00778174
-4.12549068,-3.89087100,-3.90625000,3.92162900,0.00778174
-4.04549067,-3.70632400,-3.73708200,3.92162900,0.00741265
-3.96549067,-3.35260800,-3.44488200,3.93700800,0.00670522
-3.88549067,-2.86048200,-3.01427100,3.95238700,0.00572097
-3.80549067,-2.27608300,-2.52214600,3.95238700,0.00455217
-3.72549067,-1.67630400,-1.96850400,3.95238700,0.00335261
-3.64549067,-1.09190400,-1.43024100,3.95238700,0.00218381
-3.56549067,-0.58439960,-0.92273620,3.93700800,0.00116880
-3.48549067,-0.21530510,-0.49212600,3.92162900,0.00043061
-3.40549067,-0.03075787,-0.13841040,3.92162900,0.00006152
-3.32549066,-0.03075787,0.10765260,3.92162900,0.00006152
-3.24549066,-0.21530510,0.27682080,3.92162900,0.00043061
-3.16549066,-0.58439960,0.33833660,3.93700800,0.00116880
-3.08549066,-1.09190400,0.35371550,3.95238700,0.00218381
-3.00549066,-1.67630400,0.30757870,3.95238700,0.00335261
-2.92549066,-2.27608300,0.23068400,3.95238700,0.00455217
-2.84549066,-2.86048200,0.16916830,3.95238700,0.00572097
-2.76549066,-3.35260800,0.09227362,3.93700800,0.00670522
-2.68549066,-3.70632400,0.04613681,3.92162900,0.00741265
-2.60549066,-3.89087100,0.01537894,3.92162900,0.00778174
-2.52549065,-3.90625000,0.00000000,3.92162900,0.00778174
-2.44549065,-3.75246000,-0.01537894,3.92162900,0.00741265
-2.36549065,-3.44488200,0.00000000,3.93700800,0.00670522
-2.28549065,-3.02965000,0.00000000,3.95238700,0.00572097
-2.20549065,-2.52214600,0.00000000,3.95238700,0.00455217
-2.12549065,-1.96850400,0.00000000,3.95238700,0.00335261
-2.04549065,-1.43024100,0.00000000,3.95238700,0.00218381
-1.96549065,-0.92273620,0.00000000,3.93700800,0.00116880
-1.88549065,-0.49212600,-0.01537894,3.93700800,0.00046137
-1.80549064,-0.13841040,0.00000000,3.92162900,0.00006152
-1.72549064,0.10765260,0.01537894,3.90625000,0.00003076
-1.64549064,0.27682080,0.04613681,3.89087100,0.00033834
-1.56549064,0.33833660,0.09227362,3.84473400,0.00098425
-1.48549064,0.35371550,0.16916830,3.78321800,0.00184547
-1.40549064,0.30757870,0.23068400,3.72170300,0.00286048
-1.32549064,0.23068400,0.30757870,3.64480800,0.00396777
-1.24549064,0.16916830,0.33833660,3.70632400,0.00501353
-1.16549064,0.09227362,0.33833660,3.92162900,0.00602854
-1.08549063,0.04613681,0.26144190,4.15231300,0.00688976
-1.00549063,0.01537894,0.10765260,4.12155500,0.00756644
-0.92549063,0.00000000,-0.12303150,3.53715500,0.00805856
-0.84549063,-0.01537894,-0.44598910,2.16843000,0.00839690
-0.76549063,0.00000000,-0.83046260,-0.07689468,0.00855069
-0.68549063,0.00000000,-1.26107300,-3.06040800,0.00858145
-0.60549063,0.00000000,-1.73782000,-6.38225800,0.00851993
-0.52549063,0.00000000,-2.21456700,-9.35039300,0.00836614
-0.44549063,-0.01537894,-2.67593500,-10.90367000,0.00821235
-0.36549063,-0.03075787,-3.10654500,-9.95017100,0.00805856
-0.28549062,-0.04613681,-3.49101900,-5.70558500,0.00793553
-0.20549062,-0.03075787,-3.79859700,2.33759800,0.00784326
-0.12549062,0.04613681,-4.02928100,14.33317000,0.00784326
-0.04549062,0.16916830,-4.18307100,30.05044000,0.00793553
0.03450938,0.38447340,-4.27534400,48.93578000,0.00805856
0.11450938,0.64591530,-4.29072300,70.17409000,0.00821235
0.19450938,0.95349410,-4.25996500,92.81187000,0.00836614
0.27450938,1.21493600,-4.18307100,115.89570000,0.00851993
0.35450938,1.32258800,-4.10617600,138.61040000,0.00858145
0.43450939,1.16879900,-4.02928100,160.32540000,0.00855069
0.51450939,0.78432570,-3.96776600,180.59480000,0.00839690
0.59450939,0.27682080,-3.92162900,199.21870000,0.00805856
0.67450939,-0.26144190,-3.92162900,216.13560000,0.00756644
0.75450939,-0.66129420,-3.96776600,231.39150000,0.00688976
0.83450939,-0.84584150,-4.02928100,245.06340000,0.00602854
0.91450939,-0.86122040,-4.10617600,257.16660000,0.00501353
0.99450939,-0.79970470,-4.18307100,267.54740000,0.00396777
1.07450939,-0.95349410,-4.25996500,275.91350000,0.00286048
1.15450939,-1.87623000,-4.30610200,281.78820000,0.00184547
1.23450940,-4.10617600,-4.30610200,284.60260000,0.00095349
1.31450940,-7.76636300,-4.22920700,283.74140000,0.00030758
1.39450940,-12.76452000,-4.06003900,278.74320000,0.00000000
1.47450940,-18.83920000,-3.75246000,269.25440000,0.00009227
1.55450940,-25.59055000,-3.26033400,255.27500000,0.00061516
1.63450940,-32.69562000,-2.62979800,237.05090000,0.00156865
1.71450940,-39.92372000,-1.86085100,215.24360000,0.00282972
1.79450940,-47.29023000,-1.03038900,190.74490000,0.00427534
1.87450940,-55.16425000,-0.21530510,164.67760000,0.00578248
1.95450941,-64.39160000,0.38447340,138.27200000,0.00698204
2.03450941,-75.95657000,0.61515740,112.71220000,0.00762795
2.11450941,-90.35125000,0.50750490,89.07480000,0.00781250
2.19450941,-107.80630000,0.18454720,68.14407000,0.00781250
2.27450941,-128.24490000,-0.16916830,50.35064000,0.00793553
2.35450941,-151.23650000,-0.41523130,35.84830000,0.00848917
2.43450941,-176.15030000,-0.39985230,24.42175000,0.00965797
2.51450941,-202.20230000,-0.15378940,15.62500000,0.01134966
2.59450941,-228.62330000,0.13841040,8.81213000,0.01322589
2.67450942,-254.78280000,0.12303150,3.27571300,0.01454847
2.75450942,-280.51180000,-0.95349410,-1.63016700,0.01399483
2.83450942,-305.71790000,-3.78321800,-6.18233200,0.01027313
2.91450942,-330.15500000,-8.62758300,-10.39616000,0.00276821
2.99450942,-353.56170000,-15.48659000,-14.10248000,-0.00861220
3.07450942,-375.64590000,-24.12955000,-17.03986000,-0.02359129
3.15450942,-396.09990000,-34.15662000,-18.93147000,-0.04152313
3.23450942,-414.67760000,-45.09104000,-19.56201000,-0.06160802
3.31450942,-431.14850000,-56.56373000,-18.90071000,-0.08313853
3.39450942,-445.32790000,-68.45164000,-17.08600000,-0.10565330
3.47450943,-457.20040000,-80.87783000,-14.57923000,-0.12912160
3.55450943,-466.93520000,-94.53432000,-11.87254000,-0.15428150
3.63450943,-474.79390000,-110.23620000,-9.24274100,-0.18214810
3.71450943,-480.82240000,-128.42950000,-6.85900500,-0.21324430
3.79450943,-485.00550000,-149.34480000,-4.81360700,-0.24797000
3.87450943,-487.25080000,-172.93610000,-3.09116600,-0.28632500
3.95450943,-487.42000000,-198.83430000,-1.63016700,-0.32787890
4.03450943,-485.39000000,-226.45480000,-0.32295760,-0.37180120
4.11450943,-481.06850000,-254.98280000,0.93811510,-0.41692300
4.19450944,-474.45560000,-283.58760000,2.16843000,-0.46186020
4.27450944,-465.59730000,-311.45420000,3.39874500,-0.50516730
4.35450944,-454.78590000,-338.07510000,4.56754400,-0.54567550
4.43450944,-442.46740000,-363.09670000,5.65944900,-0.58233880
4.51450944,-429.10310000,-386.04210000,6.65908000,-0.61411170
4.59450944,-415.07750000,-406.54220000,7.48954200,-0.64028670
4.67450944,-400.72890000,-424.28950000,8.15083600,-0.66037150
4.75450944,-386.21120000,-439.13010000,8.61220400,-0.67418180
4.83450944,-371.57050000,-450.92580000,8.85826700,-0.68187130
4.91450945,-356.71440000,-459.70720000,8.91978400,-0.68377830
4.99450945,-341.50460000,-465.55110000,8.81213000,-0.68048720
5.07450945,-325.54130000,-468.64230000,8.61220400,-0.67261320
5.15450945,-308.65520000,-469.22670000,8.38152000,-0.66083290
5.23450945,-291.06170000,-467.64270000,8.15083600,-0.64579230
5.31450945,-273.20680000,-464.04400000,7.98166800,-0.62789120
5.39450945,-255.62870000,-458.49220000,7.87401500,-0.60740650
5.47450945,-238.85030000,-451.01810000,7.84325700,-0.58439960
5.55450945,-223.30220000,-441.57540000,7.87401500,-0.55890130
5.63450945,-209.15350000,-430.13350000,7.95091000,-0.53094240
5.71450946,-196.35820000,-416.73840000,8.04318300,-0.50067670
5.79450946,-184.60870000,-401.45180000,8.13545700,-0.46831940
5.87450946,-173.21300000,-384.42720000,8.21235200,-0.43427040
5.95450946,-161.47880000,-365.95720000,8.22773100,-0.39911420
6.03450946,-149.26790000,-346.62590000,8.21235200,-0.36386560
6.11450946,-136.65720000,-326.97160000,8.12007800,-0.32963210
6.19450946,-123.93880000,-307.57870000,7.95091000,-0.29745940
6.27450946,-111.52800000,-288.84720000,7.72022600,-0.26817790
6.35450946,-99.76315000,-271.05370000,7.41264700,-0.24227980
6.43450947,-88.95177000,-254.27530000,7.04355200,-0.21979580
6.51450947,-79.20152000,-238.40430000,6.62832200,-0.20047980
6.59450947,-70.45090000,-223.17910000,6.16695300,-0.18359380
6.67450947,-62.25393000,-208.10780000,5.69020700,-0.16803030
6.75450947,-54.21075000,-192.82110000,5.21345900,-0.15277440
6.83450947,-46.22908000,-177.44220000,4.76747000,-0.13761070
6.91450947,-38.43196000,-162.34010000,4.36761800,-0.12275470
6.99450947,-30.97318000,-147.96070000,4.04466000,-0.10860610
7.07450947,-24.11417000,-134.81180000,3.81397600,-0.09574926
7.15450948,-18.05487000,-123.27750000,3.66018700,-0.08476870
7.23450948,-12.93369000,-113.52730000,3.59867100,-0.07600271
7.31450948,-8.79675100,-105.53030000,3.59867100,-0.06945128
7.39450948,-5.58255400,-98.97884000,3.64480800,-0.06489912
7.47450948,-2.98351400,-93.16560000,3.72170300,-0.06148499
7.55450948,-0.75356790,-87.42925000,3.78321800,-0.05831693
7.63450948,1.13804100,-81.53912000,3.84473400,-0.05517963
7.71450948,2.64517700,-75.51058000,3.89087100,-0.05191929
7.79450948,3.64480800,-69.54355000,3.90625000,-0.04862820
7.87450948,4.01390200,-63.93024000,3.92162900,-0.04558317
7.95450949,3.66018700,-58.96284000,3.93700800,-0.04296875
8.03450949,2.50676700,-54.82590000,3.93700800,-0.04100025
8.11450949,0.63053640,-51.59633000,3.95238700,-0.03973917
8.19450949,-1.83009300,-49.16646000,3.95238700,-0.03921629
8.27450949,-4.61368100,-47.10568000,3.95238700,-0.03906250
8.35450949,-7.45878400,-44.96801000,3.95238700,-0.03903174
8.43450949,-10.18086000,-42.56889000,3.93700800,-0.03900098
8.51450949,-12.64149000,-39.84682000,3.92162900,-0.03900098
8.59450949,-14.76378000,-36.84793000,3.92162900,-0.03909326
8.67450950,-16.51698000,-33.74139000,3.92162900,-0.03940084
8.75450950,-17.90108000,-30.63484000,3.92162900,-0.03995448
8.83450950,-18.94685000,-27.71284000,3.93700800,-0.04081570
8.91450950,-19.73118000,-25.05229000,3.95238700,-0.04198450
8.99450950,-20.33095000,-22.62241000,3.95238700,-0.04333784
9.07450950,-20.80770000,-20.30020000,3.95238700,-0.04469119
9.15450950,-21.25369000,-17.87033000,3.95238700,-0.04585999
9.23450950,-21.74582000,-15.25591000,3.93700800,-0.04669045
9.31450950,-22.36097000,-12.41080000,3.92162900,-0.04715182
9.39450951,-23.09916000,-9.39653000,3.92162900,-0.04721333
9.47450951,-24.00652000,-6.27460600,3.92162900,-0.04684424
9.55450951,-25.02153000,-3.12192400,3.92162900,-0.04607530
9.63450951,-26.11343000,-0.04613681,3.93700800,-0.04496801
9.71450951,-27.22072000,2.89124000,3.95238700,-0.04361467
9.79450951,-28.26648000,5.67482800,3.95238700,-0.04201525
9.87450951,-29.21998000,8.33538300,3.95238700,-0.04026206
9.95450951,-30.01968000,10.93442000,3.95238700,-0.03832431
10.03450951,-30.65022000,13.47195000,3.93700800,-0.03629429
10.11450951,-31.08083000,15.97871000,3.92162900,-0.03426427
10.19450952,-31.32689000,18.40859000,3.92162900,-0.03232653
10.27450952,-31.40379000,20.79232000,3.92162900,-0.03048105
10.35450952,-31.34227000,23.06841000,3.92162900,-0.02885089
10.43450952,-31.15772000,25.23683000,3.93700800,-0.02737451
10.51450952,-30.85015000,27.23610000,3.95238700,-0.02608268
10.59450952,-30.40416000,29.00467000,3.95238700,-0.02488312
10.67450952,-29.78900000,30.49643000,3.95238700,-0.02365281
10.75450952,-28.94316000,31.63447000,3.95238700,-0.02226870
10.83450952,-27.78974000,32.31114000,3.93700800,-0.02070005
10.91450953,-26.32874000,32.41880000,3.92162900,-0.01885458
10.99450953,-24.54478000,31.89591000,3.92162900,-0.01679380
11.07450953,-22.45325000,30.69636000,3.92162900,-0.01454847
11.15450953,-20.08489000,28.83550000,3.92162900,-0.01211860
11.23450953,-17.50123000,26.37487000,3.93700800,-0.00962722
11.31450953,-14.74840000,23.40674000,3.95238700,-0.00713583
11.39450953,-11.88792000,20.05413000,3.95238700,-0.00464444
11.47450953,-8.95054100,16.44008000,3.95238700,-0.00218381
11.55450953,-5.98240600,12.70300000,3.95238700,0.00024606
11.63450953,-3.01427100,8.93516300,3.93700800,0.00261442
