Time,Channel A,Channel B,Channel C,Channel D
(ns),(mV),(mV),(mV),(V)

-15.31851883,-0.13841040,-3.89087100,0.03075787,0.00030758
-15.23851882,-0.49212600,-3.70632400,0.19992620,0.00135335
-15.15851882,-0.92273620,-3.35260800,0.50750490,0.00282972
-15.07851882,-1.43024100,-2.86048200,0.92273620,0.00470596
-14.99851882,-1.96850400,-2.27608300,1.43024100,0.00682825
-14.91851882,-2.52214600,-1.67630400,1.98388300,0.00898130
-14.83851882,-3.01427100,-1.09190400,2.50676700,0.01107283
-14.75851882,-3.42950300,-0.58439960,3.01427100,0.01291831
-14.67851882,-3.73708200,-0.21530510,3.44488200,0.01436393
-14.59851882,-3.89087100,-0.03075787,3.78321800,0.01537894
-14.51851881,-3.90625000,-0.03075787,4.02928100,0.01587106
-14.43851881,-3.78321800,-0.21530510,4.19845000,0.01587106
-14.35851881,-3.53715500,-0.58439960,4.27534400,0.01544045
-14.27851881,-3.18344000,-1.09190400,4.29072300,0.01464075
-14.19851881,-2.75283000,-1.67630400,4.25996500,0.01356422
-14.11851881,-2.27608300,-2.27608300,4.18307100,0.01233391
-14.03851881,-1.78395700,-2.86048200,4.10617600,0.01107283
-13.95851881,-1.26107300,-3.35260800,4.02928100,0.00990404
-13.87851881,-0.75356790,-3.70632400,3.96776600,0.00891978
-13.79851880,-0.24606300,-3.89087100,3.93700800,0.00815084
-13.71851880,0.24606300,-3.89087100,3.92162900,0.00759720
-13.63851880,0.75356790,-3.70632400,3.92162900,0.00728962
-13.55851880,1.26107300,-3.35260800,3.93700800,0.00716658
-13.47851880,1.78395700,-2.86048200,3.93700800,0.00719734
-13.39851880,2.27608300,-2.27608300,3.95238700,0.00728962
-13.31851880,2.75283000,-1.67630400,3.95238700,0.00744341
-13.23851880,3.18344000,-1.09190400,3.95238700,0.00756644
-13.15851880,3.53715500,-0.58439960,3.93700800,0.00768947
-13.07851880,3.78321800,-0.23068400,3.92162900,0.00778174
-12.99851879,3.90625000,-0.03075787,3.92162900,0.00781250
-12.91851879,3.89087100,-0.01537894,3.92162900,0.00784326
-12.83851879,3.73708200,-0.16916830,3.92162900,0.00787402
-12.75851879,3.42950300,-0.49212600,3.93700800,0.00787402
-12.67851879,3.01427100,-0.92273620,3.95238700,0.00790477
-12.59851879,2.52214600,-1.43024100,3.95238700,0.00790477
-12.51851879,1.96850400,-1.98388300,3.95238700,0.00790477
-12.43851879,1.43024100,-2.50676700,3.95238700,0.00790477
-12.35851879,0.92273620,-2.99889300,3.93700800,0.00787402
-12.27851878,0.47674700,-3.42950300,3.92162900,0.00784326
-12.19851878,0.13841040,-3.78321800,3.92162900,0.00784326
-12.11851878,-0.10765260,-4.04466000,3.92162900,0.00784326
-12.03851878,-0.23068400,-4.24458600,3.92162900,0.00784326
-11.95851878,-0.24606300,-4.36761800,3.93700800,0.00787402
-11.87851878,-0.18454720,-4.45989200,3.95238700,0.00790477
-11.79851878,-0.06151574,-4.49065000,3.95238700,0.00790477
-11.71851878,0.06151574,-4.49065000,3.95238700,0.00790477
-11.63851878,0.18454720,-4.44451300,3.95238700,0.00790477
-11.55851877,0.24606300,-4.36761800,3.93700800,0.00787402
-11.47851877,0.23068400,-4.22920700,3.92162900,0.00784326
-11.39851877,0.10765260,-4.04466000,3.92162900,0.00784326
-11.31851877,-0.13841040,-3.78321800,3.92162900,0.00784326
-11.23851877,-0.47674700,-3.47564000,3.92162900,0.00784326
-11.15851877,-0.92273620,-3.10654500,3.93700800,0.00787402
-11.07851877,-1.43024100,-2.67593500,3.95238700,0.00790477
-10.99851877,-1.96850400,-2.21456700,3.95238700,0.00790477
-10.91851877,-2.52214600,-1.73782000,3.95238700,0.00790477
-10.83851877,-3.01427100,-1.27645200,3.95238700,0.00790477
-10.75851876,-3.44488200,-0.83046260,3.93700800,0.00787402
-10.67851876,-3.73708200,-0.46136810,3.92162900,0.00784326
-10.59851876,-3.90625000,-0.13841040,3.92162900,0.00784326
-10.51851876,-3.90625000,0.12303150,3.92162900,0.00784326
-10.43851876,-3.73708200,0.30757870,3.92162900,0.00784326
-10.35851876,-3.44488200,0.43061020,3.93700800,0.00787402
-10.27851876,-3.01427100,0.50750490,3.95238700,0.00790477
-10.19851876,-2.52214600,0.53826270,3.95238700,0.00790477
-10.11851876,-1.96850400,0.53826270,3.95238700,0.00790477
-10.03851875,-1.43024100,0.50750490,3.95238700,0.00790477
-9.95851875,-0.92273620,0.43061020,3.93700800,0.00787402
-9.87851875,-0.49212600,0.30757870,3.92162900,0.00784326
-9.79851875,-0.13841040,0.12303150,3.92162900,0.00784326
-9.71851875,0.10765260,-0.13841040,3.92162900,0.00784326
-9.63851875,0.27682080,-0.46136810,3.92162900,0.00784326
-9.55851875,0.33833660,-0.83046260,3.93700800,0.00787402
-9.47851875,0.35371550,-1.27645200,3.95238700,0.00790477
-9.39851875,0.30757870,-1.73782000,3.95238700,0.00790477
-9.31851874,0.23068400,-2.21456700,3.95238700,0.00790477
-9.23851874,0.16916830,-2.67593500,3.93700800,0.00790477
-9.15851874,0.10765260,-3.10654500,3.93700800,0.00787402
-9.07851874,0.04613681,-3.49101900,3.92162900,0.00784326
-8.99851874,0.01537894,-3.79859700,3.92162900,0.00784326
-8.91851874,-0.01537894,-4.02928100,3.93700800,0.00784326
-8.83851874,-0.04613681,-4.18307100,3.96776600,0.00784326
-8.75851874,-0.10765260,-4.27534400,4.02928100,0.00787402
-8.67851874,-0.16916830,-4.29072300,4.10617600,0.00790477
-8.59851874,-0.23068400,-4.25996500,4.18307100,0.00790477
-8.51851873,-0.30757870,-4.18307100,4.25996500,0.00790477
-8.43851873,-0.35371550,-4.10617600,4.29072300,0.00790477
-8.35851873,-0.33833660,-4.02928100,4.27534400,0.00787402
-8.27851873,-0.27682080,-3.96776600,4.19845000,0.00784326
-8.19851873,-0.10765260,-3.93700800,4.02928100,0.00784326
-8.11851873,0.13841040,-3.92162900,3.78321800,0.00784326
-8.03851873,0.49212600,-3.92162900,3.44488200,0.00784326
-7.95851873,0.92273620,-3.93700800,3.01427100,0.00787402
-7.87851873,1.43024100,-3.93700800,2.50676700,0.00790477
-7.79851872,1.96850400,-3.95238700,1.98388300,0.00790477
-7.71851872,2.52214600,-3.95238700,1.43024100,0.00790477
-7.63851872,3.01427100,-3.95238700,0.92273620,0.00790477
-7.55851872,3.44488200,-3.93700800,0.49212600,0.00787402
-7.47851872,3.73708200,-3.92162900,0.18454720,0.00784326
-7.39851872,3.90625000,-3.92162900,0.01537894,0.00784326
-7.31851872,3.90625000,-3.92162900,0.01537894,0.00784326
-7.23851872,3.73708200,-3.92162900,0.18454720,0.00784326
-7.15851872,3.44488200,-3.93700800,0.49212600,0.00787402
-7.07851872,3.01427100,-3.95238700,0.92273620,0.00790477
-6.99851871,2.52214600,-3.95238700,1.43024100,0.00790477
-6.91851871,1.96850400,-3.95238700,1.98388300,0.00790477
-6.83851871,1.43024100,-3.95238700,2.50676700,0.00790477
-6.75851871,0.93811510,-3.93700800,3.01427100,0.00787402
-6.67851871,0.49212600,-3.92162900,3.44488200,0.00784326
-6.59851871,0.13841040,-3.92162900,3.78321800,0.00784326
-6.51851871,-0.12303150,-3.92162900,4.02928100,0.00784326
-6.43851871,-0.30757870,-3.92162900,4.19845000,0.00784326
-6.35851871,-0.43061020,-3.93700800,4.27534400,0.00787402
-6.27851870,-0.50750490,-3.95238700,4.29072300,0.00790477
-6.19851870,-0.53826270,-3.95238700,4.25996500,0.00790477
-6.11851870,-0.53826270,-3.95238700,4.18307100,0.00790477
-6.03851870,-0.50750490,-3.95238700,4.10617600,0.00790477
-5.95851870,-0.43061020,-3.93700800,4.02928100,0.00787402
-5.87851870,-0.30757870,-3.93700800,3.96776600,0.00784326
-5.79851870,-0.12303150,-3.92162900,3.93700800,0.00784326
-5.71851870,0.13841040,-3.90625000,3.92162900,0.00784326
-5.63851870,0.49212600,-3.89087100,3.92162900,0.00784326
-5.55851869,0.93811510,-3.84473400,3.93700800,0.00787402
-5.47851869,1.43024100,-3.78321800,3.93700800,0.00790477
-5.39851869,1.96850400,-3.72170300,3.95238700,0.00790477
-5.31851869,2.52214600,-3.64480800,3.95238700,0.00790477
-5.23851869,3.01427100,-3.59867100,3.95238700,0.00790477
-5.15851869,3.42950300,-3.59867100,3.93700800,0.00787402
-5.07851869,3.73708200,-3.66018700,3.93700800,0.00784326
-4.99851869,3.89087100,-3.81397600,3.92162900,0.00784326
-4.91851869,3.90625000,-4.06003900,3.90625000,0.00784326
-4.83851869,3.78321800,-4.41375400,3.89087100,0.00784326
-4.75851868,3.53715500,-4.85974400,3.84473400,0.00787402
-4.67851868,3.18344000,-5.38262700,3.78321800,0.00790477
-4.59851868,2.75283000,-5.92089000,3.72170300,0.00790477
-4.51851868,2.27608300,-6.47453200,3.64480800,0.00790477
-4.43851868,1.78395700,-6.96665800,3.59867100,0.00790477
-4.35851868,1.26107300,-7.36651000,3.58329200,0.00787402
-4.27851868,0.75356790,-7.65871000,3.64480800,0.00784326
-4.19851868,0.24606300,-7.81250000,3.79859700,0.00784326
-4.11851868,-0.24606300,-7.82787800,4.07541800,0.00784326
-4.03851867,-0.75356790,-7.72022600,4.45989200,0.00784326
-3.95851867,-1.26107300,-7.47416300,4.95201700,0.00787402
-3.87851867,-1.78395700,-7.13582600,5.53641700,0.00790477
-3.79851867,-2.27608300,-6.70521600,6.16695300,0.00790477
-3.71851867,-2.75283000,-6.22846900,6.78211100,0.00790477
-3.63851867,-3.18344000,-5.72096400,7.32037400,0.00790477
-3.55851867,-3.53715500,-5.19808000,7.72022600,0.00787402
-3.47851867,-3.78321800,-4.69057600,7.93553100,0.00784326
-3.39851867,-3.90625000,-4.16769200,7.93553100,0.00784326
-3.31851866,-3.90625000,-3.67556500,7.68946800,0.00784326
-3.23851866,-3.78321800,-3.16806100,7.18196300,0.00784326
-3.15851866,-3.53715500,-2.67593500,6.45915300,0.00787402
-3.07851866,-3.18344000,-2.16843000,5.53641700,0.00790477
-2.99851866,-2.75283000,-1.67630400,4.49065000,0.00790477
-2.91851866,-2.27608300,-1.19955700,3.41412400,0.00790477
-2.83851866,-1.78395700,-0.76894680,2.35297700,0.00787402
-2.75851866,-1.26107300,-0.39985230,1.41486200,0.00787402
-2.67851866,-0.75356790,-0.13841040,0.66129420,0.00784326
-2.59851866,-0.24606300,-0.01537894,0.15378940,0.00784326
-2.51851865,0.24606300,-0.03075787,-0.07689468,0.00787402
-2.43851865,0.75356790,-0.19992620,-0.04613681,0.00793553
-2.35851865,1.26107300,-0.50750490,0.24606300,0.00805856
-2.27851865,1.78395700,-0.92273620,0.73818890,0.00821235
-2.19851865,2.27608300,-1.43024100,1.36872500,0.00836614
-2.11851865,2.75283000,-1.98388300,2.04539800,0.00851993
-2.03851865,3.18344000,-2.50676700,2.70669300,0.00858145
-1.95851865,3.53715500,-3.01427100,3.26033400,0.00855069
-1.87851865,3.79859700,-3.44488200,3.67556500,0.00839690
-1.79851864,3.92162900,-3.78321800,3.89087100,0.00805856
-1.71851864,3.89087100,-4.02928100,3.89087100,0.00756644
-1.63851864,3.69094500,-4.19845000,3.67556500,0.00688976
-1.55851864,3.33722900,-4.27534400,3.26033400,0.00602854
-1.47851864,2.86048200,-4.29072300,2.70669300,0.00501353
-1.39851864,2.27608300,-4.25996500,2.04539800,0.00396777
-1.31851864,1.67630400,-4.18307100,1.36872500,0.00286048
-1.23851864,1.09190400,-4.10617600,0.84584150,0.00184547
-1.15851864,0.58439960,-4.04466000,0.59977850,0.00098425
-1.07851863,0.21530510,-3.98314500,0.49212600,0.00033834
-0.99851863,0.03075787,-3.93700800,0.26144190,0.00003076
-0.91851863,0.03075787,-3.90625000,-0.39985230,0.00006152
-0.83851863,0.21530510,-3.87549200,-1.70706200,0.00046137
-0.75851863,0.58439960,-3.82935500,-3.81397600,0.00116880
-0.67851863,1.09190400,-3.78321800,-6.58218500,0.00218381
-0.59851863,1.67630400,-3.72170300,-9.61183500,0.00335261
-0.51851863,2.27608300,-3.64480800,-12.24163000,0.00455217
-0.43851863,2.86048200,-3.59867100,-13.37967000,0.00572097
-0.35851863,3.32185000,-3.59867100,-11.91868000,0.00670522
-0.27851862,3.67556500,-3.66018700,-7.01279500,0.00741265
-0.19851862,3.87549200,-3.81397600,1.84547200,0.00778174
-0.11851862,3.93700800,-4.06003900,14.87143000,0.00778174
-0.03851862,3.87549200,-4.41375400,31.83440000,0.00741265
0.04148138,3.73708200,-4.85974400,52.14997000,0.00670522
0.12148138,3.50639700,-5.38262700,74.98769000,0.00572097
0.20148138,3.22957700,-5.92089000,99.28641000,0.00455217
0.28148138,2.89124000,-6.47453200,124.00040000,0.00335261
0.36148138,2.41449300,-6.96665800,148.17610000,0.00218381
0.44148139,1.75319900,-7.38188900,171.07530000,0.00116880
0.52148139,1.01501000,-7.67408900,192.12900000,0.00046137
0.60148139,0.29219980,-7.82787800,211.04510000,0.00006152
0.68148139,-0.23068400,-7.82787800,227.70050000,0.00003076
0.76148139,-0.44598910,-7.67408900,242.17210000,0.00033834
0.84148139,-0.26144190,-7.38188900,254.55210000,0.00098425
0.92148139,0.23068400,-6.96665800,264.94830000,0.00184547
1.00148139,0.87659940,-6.47453200,273.36060000,0.00286048
1.08148139,1.33796700,-5.92089000,279.61980000,0.00396777
1.16148139,0.98425190,-5.38262700,283.41840000,0.00501353
1.24148140,-0.76894680,-4.89050100,284.27960000,0.00596703
1.32148140,-4.07541800,-4.45989200,281.74210000,0.00679749
1.40148140,-8.88902600,-4.09079700,275.35990000,0.00753568
1.48148140,-14.91757000,-3.76783900,264.87140000,0.00815084
1.56148140,-21.79195000,-3.49101900,250.23070000,0.00873524
1.64148140,-29.14308000,-3.21419800,231.66830000,0.00931964
1.72148140,-36.72490000,-2.95275600,209.75330000,0.00987328
1.80148140,-44.53740000,-2.70669300,185.33160000,0.01039616
1.88148140,-52.88816000,-2.49138800,159.46420000,0.01082677
1.96148141,-62.62303000,-2.47600900,133.33540000,0.01082677
2.04148141,-74.68011000,-2.73745100,108.06780000,0.01033465
2.12148141,-89.58231000,-3.19881900,84.72256000,0.00938115
2.20148141,-107.56030000,-3.70632400,64.06865000,0.00833538
2.28148141,-128.49100000,-4.07541800,46.58280000,0.00747416
2.36148141,-152.00540000,-4.12155500,32.40342000,0.00713583
2.44148141,-177.41140000,-3.75246000,21.34596000,0.00747416
2.52148141,-203.98620000,-3.01427100,12.94906000,0.00845842
2.60148141,-230.89940000,-2.13767200,6.59756400,0.00962722
2.68148142,-257.55100000,-1.55327200,1.53789400,0.01027313
2.76148142,-283.67990000,-2.03002000,-2.90661900,0.00901206
2.84148142,-309.23960000,-4.35223900,-7.01279500,0.00452141
2.92148142,-333.92290000,-8.82750900,-10.84215000,-0.00378322
3.00148142,-357.45260000,-15.50197000,-14.22552000,-0.01602485
3.08148142,-379.55210000,-24.17569000,-16.93221000,-0.03186516
3.16148142,-399.92920000,-34.44881000,-18.67003000,-0.05068897
3.24148142,-418.30710000,-45.85999000,-19.22367000,-0.07160433
3.32148142,-434.48570000,-57.97859000,-18.54700000,-0.09393454
3.40148142,-448.32680000,-70.60469000,-16.77842000,-0.11715670
3.48148143,-459.78410000,-83.76907000,-14.33317000,-0.14133240
3.56148143,-469.05760000,-98.08685000,-11.70337000,-0.16716900
3.64148143,-476.39330000,-114.25010000,-9.15046700,-0.19571240
3.72148143,-481.83750000,-132.64330000,-6.81286900,-0.22760830
3.80148143,-485.35920000,-153.45100000,-4.81360700,-0.26319510
3.88148143,-486.88170000,-176.58090000,-3.10654500,-0.30253450
3.96148143,-486.26660000,-201.71010000,-1.64554600,-0.34516490
4.04148143,-483.39070000,-228.23880000,-0.32295760,-0.39025590
4.12148143,-478.17720000,-255.47490000,0.92273620,-0.43657730
4.20148144,-470.67230000,-282.63410000,2.16843000,-0.48268330
4.28148144,-460.93750000,-308.99360000,3.39874500,-0.52709770
4.36148144,-449.26490000,-334.15350000,4.56754400,-0.56849780
4.44148144,-436.17740000,-357.82170000,5.65944900,-0.60580710
4.52148144,-422.10570000,-379.58290000,6.64370100,-0.63791830
4.60148144,-407.48030000,-399.09880000,7.48954200,-0.66403170
4.68148144,-392.65500000,-416.10790000,8.16621500,-0.68359380
4.76148144,-377.79900000,-430.39490000,8.65834000,-0.69648130
4.84148144,-362.92750000,-441.85220000,8.95054100,-0.70281740
4.92148145,-347.97920000,-450.46440000,9.07357200,-0.70306350
5.00148145,-332.75400000,-456.26230000,9.05819300,-0.69786540
5.08148145,-316.86760000,-459.41490000,8.91978400,-0.68793060
5.16148145,-300.08920000,-460.16850000,8.71985600,-0.67412030
5.24148145,-282.64950000,-458.81520000,8.48917200,-0.65717270
5.32148145,-264.99440000,-455.53950000,8.24311000,-0.63761070
5.40148145,-247.64700000,-450.40290000,7.98166800,-0.61577270
5.48148145,-231.16080000,-443.43620000,7.70484700,-0.59181230
5.56148145,-215.95100000,-434.63950000,7.38188900,-0.56576030
5.64148145,-202.21760000,-423.95110000,7.02817400,-0.53764770
5.72148146,-189.89910000,-411.38650000,6.61294300,-0.50750490
5.80148146,-178.67250000,-397.02260000,6.16695300,-0.47548600
5.88148146,-167.81490000,-380.95160000,5.69020700,-0.44183690
5.96148146,-156.61910000,-363.41960000,5.21345900,-0.40704970
6.04148146,-144.85420000,-344.96490000,4.76747000,-0.37201650
6.12148146,-132.56640000,-326.09500000,4.38299700,-0.33781370
6.20148146,-120.01720000,-307.31730000,4.06003900,-0.30548720
6.28148146,-107.54490000,-289.04710000,3.79859700,-0.27577510
6.36148146,-95.51857000,-271.53050000,3.62942900,-0.24926180
6.44148147,-84.23043000,-254.84430000,3.50639700,-0.22603960
6.52148147,-73.84965000,-238.92720000,3.44488200,-0.20583170
6.60148147,-64.34547000,-223.54820000,3.41412400,-0.18802290
6.68148147,-55.41031000,-208.27690000,3.41412400,-0.17150590
6.76148147,-46.70583000,-192.79030000,3.42950300,-0.15529650
6.84148147,-38.26279000,-177.28840000,3.50639700,-0.13927160
6.92148147,-30.26575000,-162.14010000,3.61405000,-0.12364670
7.00148147,-22.92999000,-147.86850000,3.79859700,-0.10885210
7.08148147,-16.56311000,-134.95020000,4.06003900,-0.09553396
7.16148148,-11.34966000,-123.78510000,4.42913300,-0.08424582
7.24148148,-7.39726800,-114.54230000,4.87512300,-0.07532603
7.32148148,-4.69057600,-107.12970000,5.38262700,-0.06877460
7.40148148,-3.06040800,-101.19340000,5.92089000,-0.06428396
7.48148148,-2.09153500,-95.99532000,6.47453200,-0.06099286
7.56148148,-1.41486200,-90.79724000,6.96665800,-0.05800935
7.64148148,-0.87659940,-85.32233000,7.38188900,-0.05499508
7.72148148,-0.43061020,-79.53986000,7.67408900,-0.05182702
7.80148148,-0.09227362,-73.57283000,7.82787800,-0.04862820
7.88148148,0.03075787,-67.68269000,7.81250000,-0.04558317
7.96148149,-0.16916830,-62.17704000,7.62795300,-0.04296875
8.04148149,-0.78432570,-57.24040000,7.28961600,-0.04100025
8.12148149,-1.79933500,-53.02657000,6.79749000,-0.03976993
8.20148149,-3.21419800,-49.47404000,6.22846900,-0.03921629
8.28148149,-4.84436500,-46.25984000,5.62869100,-0.03906250
8.36148149,-6.53604800,-43.03026000,5.02891200,-0.03903174
8.44148149,-8.19697300,-39.72379000,4.52140800,-0.03900098
8.52148149,-9.75024500,-36.32505000,4.15231300,-0.03903174
8.60148149,-11.13435000,-32.98782000,3.95238700,-0.03912402
8.68148150,-12.34929000,-29.85052000,3.95238700,-0.03937008
8.76148150,-13.37967000,-27.06693000,4.15231300,-0.03986220
8.84148150,-14.22552000,-24.76009000,4.52140800,-0.04063115
8.92148150,-14.93295000,-22.94537000,5.02891200,-0.04164616
9.00148150,-15.53273000,-21.54589000,5.62869100,-0.04287647
9.08148150,-16.08637000,-20.31557000,6.22846900,-0.04407603
9.16148150,-16.64001000,-18.96223000,6.81286900,-0.04515256
9.24148150,-17.28592000,-17.34744000,7.28961600,-0.04601378
9.32148150,-18.07025000,-15.37894000,7.64333200,-0.04662894
9.40148151,-19.05450000,-13.05672000,7.82787800,-0.04696727
9.48148151,-20.22330000,-10.41154000,7.82787800,-0.04712106
9.56148151,-21.59203000,-7.55105800,7.64333200,-0.04705955
9.64148151,-23.11454000,-4.56754400,7.28961600,-0.04684424
9.72148151,-24.69857000,-1.58403000,6.81286900,-0.04647515
9.80148151,-26.29798000,1.35334600,6.22846900,-0.04598302
9.88148151,-27.78974000,4.21382900,5.62869100,-0.04530635
9.96148151,-29.09695000,7.01279500,5.02891200,-0.04438361
10.04148151,-30.15809000,9.70410800,4.52140800,-0.04321481
10.12148151,-30.89628000,12.24163000,4.15231300,-0.04176919
10.20148152,-31.31151000,14.59461000,3.95238700,-0.04013903
10.28148152,-31.37303000,16.73228000,3.95238700,-0.03826280
10.36148152,-31.11159000,18.63927000,4.15231300,-0.03623278
10.44148152,-30.55795000,20.28482000,4.52140800,-0.03407972
10.52148152,-29.75824000,21.69968000,5.02891200,-0.03180364
10.60148152,-28.74323000,22.83772000,5.62869100,-0.02943528
10.68148152,-27.51292000,23.71432000,6.22846900,-0.02697466
10.76148152,-26.08268000,24.32948000,6.79749000,-0.02445251
10.84148152,-24.43713000,24.59092000,7.28961600,-0.02183809
10.92148153,-22.62241000,24.48326000,7.62795300,-0.01928519
11.00148153,-20.63853000,23.96038000,7.81250000,-0.01685531
11.08148153,-18.54700000,23.00689000,7.82787800,-0.01457923
11.16148153,-16.37857000,21.60740000,7.67408900,-0.01254921
11.24148153,-14.14862000,19.83883000,7.38188900,-0.01079601
11.32148153,-11.88792000,17.71653000,6.96665800,-0.00928888
11.40148153,-9.61183500,15.31742000,6.47453200,-0.00796629
11.48148153,-7.28961600,12.73376000,5.92089000,-0.00673597
11.56148153,-4.90588000,9.99630800,5.38262700,-0.00547490
11.64148153,-2.44525100,7.18196300,4.85974400,-0.00409080
