Time,Channel A,Channel B,Channel C,Channel D
(ns),(mV),(mV),(mV),(V)

-15.33061283,3.76783900,-3.79859700,4.07541800,0.00787402
-15.25061282,3.26033400,-3.49101900,4.45989200,0.00793553
-15.17061282,2.52214600,-3.10654500,4.95201700,0.00805856
-15.09061282,1.58403000,-2.67593500,5.53641700,0.00821235
-15.01061282,0.53826270,-2.21456700,6.16695300,0.00836614
-14.93061282,-0.53826270,-1.73782000,6.78211100,0.00851993
-14.85061282,-1.58403000,-1.26107300,7.32037400,0.00858145
-14.77061282,-2.52214600,-0.83046260,7.72022600,0.00855069
-14.69061282,-3.26033400,-0.44598910,7.93553100,0.00839690
-14.61061282,-3.76783900,-0.12303150,7.93553100,0.00805856
-14.53061281,-4.01390200,0.10765260,7.68946800,0.00756644
-14.45061281,-4.01390200,0.26144190,7.18196300,0.00688976
-14.37061281,-3.78321800,0.33833660,6.45915300,0.00602854
-14.29061281,-3.36798700,0.33833660,5.53641700,0.00501353
-14.21061281,-2.82972400,0.30757870,4.49065000,0.00396777
-14.13061281,-2.21456700,0.23068400,3.41412400,0.00286048
-14.05061281,-1.59940900,0.16916830,2.35297700,0.00184547
-13.97061281,-1.01501000,0.09227362,1.41486200,0.00098425
-13.89061281,-0.53826270,0.04613681,0.66129420,0.00033834
-13.81061280,-0.15378940,0.01537894,0.15378940,0.00003076
-13.73061280,0.12303150,0.00000000,-0.07689468,0.00006152
-13.65061280,0.27682080,-0.01537894,-0.04613681,0.00046137
-13.57061280,0.35371550,0.00000000,0.24606300,0.00116880
-13.49061280,0.35371550,0.00000000,0.73818890,0.00218381
-13.41061280,0.30757870,0.00000000,1.36872500,0.00335261
-13.33061280,0.23068400,0.00000000,2.04539800,0.00455217
-13.25061280,0.16916830,0.00000000,2.69131400,0.00572097
-13.17061280,0.09227362,0.00000000,3.26033400,0.00670522
-13.09061280,0.04613681,-0.01537894,3.66018700,0.00741265
-13.01061279,0.01537894,0.00000000,3.89087100,0.00778174
-12.93061279,0.00000000,0.01537894,3.90625000,0.00778174
-12.85061279,-0.01537894,0.04613681,3.72170300,0.00741265
-12.77061279,0.00000000,0.09227362,3.35260800,0.00670522
-12.69061279,0.00000000,0.16916830,2.86048200,0.00572097
-12.61061279,0.00000000,0.23068400,2.27608300,0.00455217
-12.53061279,0.00000000,0.30757870,1.67630400,0.00335261
-12.45061279,0.00000000,0.35371550,1.09190400,0.00218381
-12.37061279,0.00000000,0.33833660,0.58439960,0.00116880
-12.29061278,0.01537894,0.27682080,0.23068400,0.00043061
-12.21061278,0.00000000,0.10765260,0.03075787,0.00006152
-12.13061278,-0.01537894,-0.13841040,0.01537894,0.00006152
-12.05061278,-0.04613681,-0.49212600,0.16916830,0.00043061
-11.97061278,-0.09227362,-0.92273620,0.49212600,0.00116880
-11.89061278,-0.16916830,-1.43024100,0.92273620,0.00218381
-11.81061278,-0.23068400,-1.96850400,1.43024100,0.00335261
-11.73061278,-0.30757870,-2.52214600,1.98388300,0.00455217
-11.65061278,-0.35371550,-3.01427100,2.50676700,0.00572097
-11.57061277,-0.33833660,-3.44488200,3.01427100,0.00670522
-11.49061277,-0.27682080,-3.73708200,3.44488200,0.00741265
-11.41061277,-0.10765260,-3.90625000,3.78321800,0.00778174
-11.33061277,0.13841040,-3.90625000,4.02928100,0.00781250
-11.25061277,0.49212600,-3.73708200,4.19845000,0.00750492
-11.17061277,0.92273620,-3.44488200,4.27534400,0.00688976
-11.09061277,1.43024100,-3.01427100,4.29072300,0.00605930
-11.01061277,1.96850400,-2.52214600,4.25996500,0.00504429
-10.93061277,2.52214600,-1.96850400,4.18307100,0.00393701
-10.85061277,3.01427100,-1.43024100,4.10617600,0.00286048
-10.77061276,3.44488200,-0.93811510,4.02928100,0.00187623
-10.69061276,3.73708200,-0.49212600,3.96776600,0.00098425
-10.61061276,3.90625000,-0.13841040,3.93700800,0.00027682
-10.53061276,3.90625000,0.12303150,3.92162900,-0.00024606
-10.45061276,3.73708200,0.30757870,3.92162900,-0.00061516
-10.37061276,3.44488200,0.43061020,3.93700800,-0.00086122
-10.29061276,3.01427100,0.50750490,3.93700800,-0.00101501
-10.21061276,2.52214600,0.53826270,3.95238700,-0.00107653
-10.13061276,1.96850400,0.53826270,3.95238700,-0.00107653
-10.05061275,1.43024100,0.50750490,3.95238700,-0.00101501
-9.97061275,0.92273620,0.43061020,3.93700800,-0.00086122
-9.89061275,0.47674700,0.30757870,3.93700800,-0.00058440
-9.81061275,0.13841040,0.12303150,3.92162900,-0.00021531
-9.73061275,-0.10765260,-0.13841040,3.90625000,0.00024606
-9.65061275,-0.23068400,-0.46136810,3.89087100,0.00083046
-9.57061275,-0.24606300,-0.83046260,3.84473400,0.00147638
-9.49061275,-0.18454720,-1.27645200,3.78321800,0.00221457
-9.41061275,-0.06151574,-1.73782000,3.72170300,0.00301427
-9.33061274,0.06151574,-2.21456700,3.64480800,0.00381398
-9.25061274,0.18454720,-2.67593500,3.59867100,0.00467520
-9.17061274,0.24606300,-3.10654500,3.59867100,0.00553642
-9.09061274,0.23068400,-3.49101900,3.66018700,0.00642840
-9.01061274,0.10765260,-3.79859700,3.81397600,0.00735113
-8.93061274,-0.13841040,-4.02928100,4.06003900,0.00833538
-8.85061274,-0.47674700,-4.18307100,4.41375400,0.00935039
-8.77061274,-0.92273620,-4.27534400,4.85974400,0.01039616
-8.69061274,-1.43024100,-4.29072300,5.38262700,0.01144193
-8.61061274,-1.96850400,-4.25996500,5.92089000,0.01245694
-8.53061273,-2.52214600,-4.18307100,6.47453200,0.01341043
-8.45061273,-3.01427100,-4.10617600,6.96665800,0.01427165
-8.37061273,-3.44488200,-4.02928100,7.38188900,0.01494833
-8.29061273,-3.73708200,-3.96776600,7.67408900,0.01544045
-8.21061273,-3.90625000,-3.92162900,7.82787800,0.01565576
-8.13061273,-3.90625000,-3.92162900,7.81250000,0.01562500
-8.05061273,-3.73708200,-3.96776600,7.62795300,0.01531742
-7.97061273,-3.44488200,-4.02928100,7.28961600,0.01473302
-7.89061273,-3.01427100,-4.10617600,6.79749000,0.01393332
-7.81061272,-2.52214600,-4.18307100,6.22846900,0.01294907
-7.73061272,-1.96850400,-4.25996500,5.62869100,0.01184178
-7.65061272,-1.43024100,-4.29072300,5.02891200,0.01076526
-7.57061272,-0.92273620,-4.27534400,4.52140800,0.00971949
-7.49061272,-0.49212600,-4.19845000,4.15231300,0.00882751
-7.41061272,-0.13841040,-4.02928100,3.95238700,0.00812008
-7.33061272,0.10765260,-3.78321800,3.95238700,0.00762795
-7.25061272,0.27682080,-3.44488200,4.15231300,0.00732037
-7.17061272,0.33833660,-3.01427100,4.52140800,0.00719734
-7.09061272,0.35371550,-2.50676700,5.02891200,0.00719734
-7.01061271,0.30757870,-1.98388300,5.62869100,0.00728962
-6.93061271,0.23068400,-1.43024100,6.22846900,0.00744341
-6.85061271,0.15378940,-0.92273620,6.79749000,0.00756644
-6.77061271,0.09227362,-0.47674700,7.28961600,0.00765871
-6.69061271,0.03075787,-0.16916830,7.62795300,0.00775098
-6.61061271,0.00000000,-0.01537894,7.81250000,0.00781250
-6.53061271,0.00000000,-0.04613681,7.82787800,0.00787402
-6.45061271,0.03075787,-0.27682080,7.67408900,0.00796629
-6.37061271,0.09227362,-0.69205210,7.38188900,0.00808932
-6.29061270,0.15378940,-1.24569400,6.96665800,0.00821235
-6.21061270,0.23068400,-1.90698800,6.47453200,0.00836614
-6.13061270,0.30757870,-2.58366100,5.92089000,0.00851993
-6.05061270,0.33833660,-3.19881900,5.36724900,0.00858145
-5.97061270,0.33833660,-3.69094500,4.85974400,0.00855069
-5.89061270,0.26144190,-3.96776600,4.39837600,0.00836614
-5.81061270,0.10765260,-3.99852300,4.06003900,0.00805856
-5.73061270,-0.12303150,-3.76783900,3.81397600,0.00759720
-5.65061270,-0.44598910,-3.26033400,3.70632400,0.00698204
-5.57061269,-0.83046260,-2.52214600,3.69094500,0.00621309
-5.49061269,-1.26107300,-1.59940900,3.76783900,0.00535187
-5.41061269,-1.73782000,-0.53826270,3.89087100,0.00442913
-5.33061269,-2.21456700,0.53826270,4.01390200,0.00347564
-5.25061269,-2.67593500,1.58403000,4.13693400,0.00255290
-5.17061269,-3.10654500,2.50676700,4.18307100,0.00166093
-5.09061269,-3.47564000,3.24495600,4.15231300,0.00092274
-5.01061269,-3.78321800,3.75246000,4.02928100,0.00027682
-4.93061269,-4.04466000,4.02928100,3.78321800,-0.00024606
-4.85061269,-4.22920700,4.06003900,3.44488200,-0.00061516
-4.77061268,-4.36761800,3.87549200,3.01427100,-0.00086122
-4.69061268,-4.44451300,3.53715500,2.52214600,-0.00101501
-4.61061268,-4.49065000,3.06040800,1.98388300,-0.00107653
-4.53061268,-4.49065000,2.52214600,1.43024100,-0.00107653
-4.45061268,-4.45989200,1.93774600,0.92273620,-0.00101501
-4.37061268,-4.36761800,1.36872500,0.49212600,-0.00086122
-4.29061268,-4.24458600,0.79970470,0.18454720,-0.00061516
-4.21061268,-4.04466000,0.26144190,0.01537894,-0.00024606
-4.13061268,-3.78321800,-0.26144190,0.01537894,0.00027682
-4.05061267,-3.42950300,-0.76894680,0.18454720,0.00092274
-3.97061267,-2.99889300,-1.27645200,0.49212600,0.00166093
-3.89061267,-2.50676700,-1.78395700,0.92273620,0.00255290
-3.81061267,-1.98388300,-2.27608300,1.43024100,0.00347564
-3.73061267,-1.43024100,-2.75283000,1.98388300,0.00442913
-3.65061267,-0.92273620,-3.18344000,2.50676700,0.00535187
-3.57061267,-0.49212600,-3.53715500,2.99889300,0.00621309
-3.49061267,-0.16916830,-3.78321800,3.42950300,0.00698204
-3.41061267,-0.01537894,-3.90625000,3.78321800,0.00759720
-3.33061266,-0.03075787,-3.89087100,4.04466000,0.00805856
-3.25061266,-0.23068400,-3.73708200,4.24458600,0.00836614
-3.17061266,-0.58439960,-3.42950300,4.36761800,0.00855069
-3.09061266,-1.09190400,-3.01427100,4.45989200,0.00858145
-3.01061266,-1.67630400,-2.52214600,4.49065000,0.00851993
-2.93061266,-2.27608300,-1.96850400,4.49065000,0.00836614
-2.85061266,-2.86048200,-1.43024100,4.45989200,0.00821235
-2.77061266,-3.35260800,-0.92273620,4.36761800,0.00805856
-2.69061266,-3.70632400,-0.49212600,4.24458600,0.00793553
-2.61061266,-3.89087100,-0.13841040,4.04466000,0.00787402
-2.53061265,-3.90625000,0.10765260,3.78321800,0.00784326
-2.45061265,-3.75246000,0.27682080,3.42950300,0.00784326
-2.37061265,-3.44488200,0.33833660,2.99889300,0.00787402
-2.29061265,-3.02965000,0.35371550,2.50676700,0.00787402
-2.21061265,-2.52214600,0.30757870,1.98388300,0.00790477
-2.13061265,-1.96850400,0.23068400,1.43024100,0.00790477
-2.05061265,-1.43024100,0.16916830,0.92273620,0.00787402
-1.97061265,-0.92273620,0.09227362,0.50750490,0.00787402
-1.89061265,-0.49212600,0.04613681,0.19992620,0.00784326
-1.81061264,-0.13841040,0.01537894,0.03075787,0.00784326
-1.73061264,0.10765260,0.00000000,0.01537894,0.00787402
-1.65061264,0.27682080,-0.01537894,0.13841040,0.00793553
-1.57061264,0.33833660,0.00000000,0.39985230,0.00805856
-1.49061264,0.35371550,0.00000000,0.76894680,0.00821235
-1.41061264,0.30757870,0.00000000,1.19955700,0.00836614
-1.33061264,0.23068400,0.00000000,1.67630400,0.00851993
-1.25061264,0.15378940,0.00000000,2.26070400,0.00858145
-1.17061264,0.09227362,0.00000000,2.98351400,0.00855069
-1.09061263,0.03075787,0.00000000,3.64480800,0.00836614
-1.01061263,0.00000000,0.00000000,3.98314500,0.00805856
-0.93061263,0.00000000,0.00000000,3.67556500,0.00759720
-0.85061263,0.03075787,0.00000000,2.52214600,0.00698204
-0.77061263,0.09227362,0.00000000,0.46136810,0.00621309
-0.69061263,0.15378940,0.00000000,-2.39911400,0.00535187
-0.61061263,0.23068400,0.00000000,-5.61331200,0.00442913
-0.53061263,0.30757870,0.00000000,-8.50455100,0.00347564
-0.45061263,0.33833660,0.00000000,-10.08858000,0.00255290
-0.37061263,0.32295760,0.00000000,-9.28887700,0.00166093
-0.29061262,0.23068400,-0.01537894,-5.30573300,0.00092274
-0.21061262,0.09227362,0.00000000,2.46063000,0.00027682
-0.13061262,-0.09227362,0.01537894,14.22552000,-0.00024606
-0.05061262,-0.30757870,0.04613681,29.85052000,-0.00061516
0.02938738,-0.53826270,0.09227362,48.79736000,-0.00086122
0.10938738,-0.78432570,0.16916830,70.23560000,-0.00101501
0.18938738,-1.03038900,0.23068400,93.13483000,-0.00107653
0.26938738,-1.30720900,0.30757870,116.34170000,-0.00107653
0.34938738,-1.69168300,0.33833660,138.77950000,-0.00101501
0.42938739,-2.27608300,0.33833660,159.52570000,-0.00086122
0.50938739,-2.96813500,0.26144190,177.87280000,-0.00061516
0.58938739,-3.64480800,0.10765260,193.39010000,-0.00024606
0.66938739,-4.13693400,-0.12303150,205.93930000,0.00027682
0.74938739,-4.32148100,-0.44598910,215.59730000,0.00092274
0.82938739,-4.10617600,-0.83046260,222.57930000,0.00166093
0.90938739,-3.55253400,-1.26107300,227.14690000,0.00255290
0.98938739,-2.84510300,-1.73782000,229.57680000,0.00347564
1.06938739,-2.30684000,-2.21456700,229.97660000,0.00442913
1.14938739,-2.61441900,-2.69131400,228.36180000,0.00535187
1.22938740,-4.35223900,-3.13730300,224.56320000,0.00615158
1.30938740,-7.72022600,-3.52177600,218.33470000,0.00688976
1.38938740,-12.68762000,-3.81397600,209.46110000,0.00753568
1.46938740,-18.99298000,-3.99852300,197.72700000,0.00815084
1.54938740,-26.25184000,-4.01390200,183.10160000,0.00873524
1.62938740,-34.11048000,-3.89087100,165.70800000,0.00928888
1.70938740,-42.27670000,-3.64480800,145.97690000,0.00987328
1.78938740,-50.70435000,-3.30647100,124.52320000,0.01039616
1.86938740,-59.65489000,-2.96813500,102.20840000,0.01082677
1.94938741,-69.92802000,-2.79896600,79.95509000,0.01082677
2.02938741,-82.38496000,-2.93737700,58.74754000,0.01030389
2.10938741,-97.50246000,-3.30647100,39.47773000,0.00938115
2.18938741,-115.48040000,-3.73708200,22.86848000,0.00830463
2.26938741,-136.21120000,-4.04466000,9.31963500,0.00747416
2.34938741,-159.31040000,-4.01390200,-1.01501000,0.00722810
2.42938741,-184.16280000,-3.55253400,-8.30462600,0.00768947
2.50938741,-209.99940000,-2.69131400,-12.97982000,0.00876599
2.58938741,-236.11280000,-1.67630400,-15.62500000,0.01008858
2.66938742,-261.87250000,-0.93811510,-17.00910000,0.01088829
2.74938742,-287.06320000,-1.33796700,-17.82419000,0.00971949
2.82938742,-311.65410000,-3.64480800,-18.43934000,0.00522884
2.90938742,-335.35310000,-8.25848900,-18.99298000,-0.00319882
2.98938742,-357.92940000,-15.25591000,-19.46973000,-0.01574803
3.06938742,-379.09080000,-24.46789000,-19.66966000,-0.03220350
3.14938742,-398.59120000,-35.50996000,-19.39284000,-0.05191929
3.22938742,-416.15400000,-47.89001000,-18.42397000,-0.07403420
3.30938742,-431.57910000,-61.16203000,-16.71690000,-0.09774853
3.38938742,-444.71270000,-75.01846000,-14.28703000,-0.12253940
3.46938743,-455.49330000,-89.41313000,-11.42655000,-0.14819140
3.54938743,-464.07480000,-104.80740000,-8.48917200,-0.17525840
3.62938743,-470.67230000,-121.78580000,-5.67482800,-0.20460140
3.70938743,-475.31680000,-140.62500000,-3.13730300,-0.23662030
3.78938743,-477.97730000,-161.44810000,-0.95349410,-0.27162280
3.86938743,-478.56170000,-184.16280000,0.84584150,-0.30957800
3.94938743,-476.97770000,-208.47690000,2.27608300,-0.35005540
4.02938743,-473.10220000,-233.83670000,3.39874500,-0.39234740
4.10938743,-466.90450000,-259.62720000,4.27534400,-0.43531620
4.18938744,-458.44610000,-285.14090000,4.99815400,-0.47776200
4.26938744,-447.81920000,-309.73180000,5.61331200,-0.51836250
4.34938744,-435.36230000,-333.04620000,6.16695300,-0.55601010
4.42938744,-421.56740000,-354.79210000,6.67445900,-0.58972070
4.50938744,-406.92660000,-374.63090000,7.16658400,-0.61854080
4.58938744,-391.93220000,-392.20900000,7.62795300,-0.64176300
4.66938744,-376.89160000,-407.29570000,8.04318300,-0.65892600
4.74938744,-362.02010000,-419.69120000,8.36614100,-0.66984500
4.82938744,-347.36400000,-429.30300000,8.61220400,-0.67464320
4.90938745,-332.78480000,-436.11590000,8.73523500,-0.67378200
4.98938745,-318.06710000,-440.19130000,8.75061400,-0.66775350
5.06938745,-302.79590000,-441.69840000,8.68909800,-0.65729580
5.14938745,-286.66340000,-440.92950000,8.55068800,-0.64311640
5.22938745,-269.85420000,-438.16130000,8.39689900,-0.62592270
5.30938745,-252.70670000,-433.60910000,8.19697300,-0.60623770
5.38938745,-235.75910000,-427.36520000,7.96628900,-0.58436880
5.46938745,-219.47280000,-419.46050000,7.72022600,-0.56050070
5.54938745,-204.27840000,-409.89480000,7.42802600,-0.53469490
5.62938745,-190.37590000,-398.63740000,7.12044700,-0.50701280
5.70938746,-177.76510000,-385.68840000,6.78211100,-0.47748520
5.78938746,-166.18480000,-371.13990000,6.39763700,-0.44626600
5.86938746,-154.98890000,-355.06890000,5.99778500,-0.41357040
5.94938746,-143.56240000,-337.72140000,5.56717500,-0.37982900
6.02938746,-131.78210000,-319.62050000,5.12118600,-0.34590300
6.10938746,-119.77120000,-301.30410000,4.65981800,-0.31277680
6.18938746,-107.82170000,-283.31080000,4.16769200,-0.28146530
6.26938746,-96.28752000,-266.05560000,3.66018700,-0.25270670
6.34938746,-85.55302000,-249.81540000,3.13730300,-0.22705460
6.42938747,-75.83353000,-234.66720000,2.58366100,-0.20457060
6.50938747,-67.23671000,-220.50320000,2.01464100,-0.18507010
6.58938747,-59.68565000,-207.03120000,1.43024100,-0.16790720
6.66938747,-52.71899000,-193.72850000,0.89197830,-0.15206690
6.74938747,-45.92150000,-180.17960000,0.41523130,-0.13662650
6.82938747,-39.21629000,-166.44620000,0.06151574,-0.12140130
6.90938747,-32.68024000,-152.78970000,-0.12303150,-0.10660680
6.98938747,-26.45177000,-139.62540000,-0.10765260,-0.09270423
7.06938747,-20.77694000,-127.38370000,0.16916830,-0.08030881
7.14938748,-15.82493000,-116.43390000,0.67667320,-0.06994341
7.22938748,-11.74951000,-106.99130000,1.43024100,-0.06188484
7.30938748,-8.58144600,-99.00959000,2.35297700,-0.05622539
7.38938748,-6.25922700,-92.28899000,3.41412400,-0.05256521
7.46938748,-4.47527100,-86.21432000,4.49065000,-0.05010458
7.54938748,-2.98351400,-80.18578000,5.53641700,-0.04789001
7.62938748,-1.75319900,-74.04958000,6.45915300,-0.04564469
7.70938748,-0.76894680,-67.85187000,7.19734200,-0.04318405
7.78938748,-0.15378940,-61.76181000,7.68946800,-0.04053888
7.86938748,0.01537894,-56.04084000,7.93553100,-0.03795522
7.94938749,-0.36909450,-50.98117000,7.90477300,-0.03561762
8.02938749,-1.33796700,-46.73659000,7.62795300,-0.03377214
8.10938749,-2.89124000,-43.36860000,7.15120500,-0.03254183
8.18938749,-4.89050100,-40.78494000,6.53604800,-0.03192667
8.26938749,-7.13582600,-38.58575000,5.85937500,-0.03164985
8.34938749,-9.39653000,-36.38656000,5.19808000,-0.03146530
8.42938749,-11.53420000,-34.00283000,4.61368100,-0.03134227
8.50938749,-13.44119000,-31.43455000,4.18307100,-0.03125000
8.58938749,-15.02522000,-28.77399000,3.95238700,-0.03128076
8.66938750,-16.25554000,-26.17495000,3.93700800,-0.03152682
8.74938750,-17.13213000,-23.80659000,4.13693400,-0.03198819
8.82938750,-17.67040000,-21.79195000,4.50602900,-0.03275714
8.90938750,-17.94722000,-20.17716000,5.02891200,-0.03377214
8.98938750,-18.05487000,-18.91609000,5.62869100,-0.03497170
9.06938750,-18.05487000,-17.74729000,6.22846900,-0.03617126
9.14938750,-18.07025000,-16.37857000,6.81286900,-0.03727854
9.22938750,-18.20866000,-14.62537000,7.28961600,-0.03813976
9.30938750,-18.56238000,-12.36466000,7.64333200,-0.03875492
9.38938751,-19.19291000,-9.48880400,7.82787800,-0.03912402
9.46938751,-20.10027000,-6.05930100,7.82787800,-0.03924705
9.54938751,-21.28445000,-2.10691400,7.64333200,-0.03918553
9.62938751,-22.66855000,2.24532500,7.28961600,-0.03897022
9.70938751,-24.19107000,6.82824800,6.81286900,-0.03857037
9.78938751,-25.75972000,11.47269000,6.22846900,-0.03807825
9.86938751,-27.25147000,16.02485000,5.62869100,-0.03740158
9.94938751,-28.58944000,20.36171000,5.02891200,-0.03647884
10.02938751,-29.72748000,24.28334000,4.52140800,-0.03534080
10.10938751,-30.58870000,27.63595000,4.15231300,-0.03392594
10.18938752,-31.18848000,30.31188000,3.95238700,-0.03229577
10.26938752,-31.51144000,32.24963000,3.95238700,-0.03041954
10.34938752,-31.60371000,33.43381000,4.15231300,-0.02838952
10.42938752,-31.49606000,33.91056000,4.52140800,-0.02620571
10.50938752,-31.18848000,33.75676000,5.02891200,-0.02389887
10.58938752,-30.71173000,33.08009000,5.62869100,-0.02153051
10.66938752,-30.03506000,31.98819000,6.22846900,-0.01906988
10.74938752,-29.09695000,30.57333000,6.79749000,-0.01654774
10.82938752,-27.88201000,28.86626000,7.27423700,-0.01399483
10.90938753,-26.37487000,26.91314000,7.61257400,-0.01147269
10.98938753,-24.56016000,24.71395000,7.81250000,-0.00901206
11.06938753,-22.45325000,22.29946000,7.84325700,-0.00670522
11.14938753,-20.08489000,19.65428000,7.72022600,-0.00461368
11.22938753,-17.50123000,16.80918000,7.47416300,-0.00273745
11.30938753,-14.74840000,13.79491000,7.13582600,-0.00107653
11.38938753,-11.88792000,10.62684000,6.70521600,0.00039985
11.46938753,-8.95054100,7.35113100,6.22846900,0.00175320
11.54938753,-5.98240600,3.99852300,5.72096400,0.00310655
11.62938753,-3.01427100,0.59977850,5.19808000,0.00445989
