Time,Channel A,Channel B,Channel C,Channel D
(ns),(mV),(mV),(mV),(V)

-15.75384683,0.00000000,-3.92162900,4.02928100,0.00756644
-15.67384682,0.00000000,-3.96776600,4.19845000,0.00688976
-15.59384682,0.00000000,-4.02928100,4.27534400,0.00602854
-15.51384682,0.00000000,-4.10617600,4.29072300,0.00501353
-15.43384682,0.00000000,-4.18307100,4.25996500,0.00396777
-15.35384682,0.00000000,-4.25996500,4.18307100,0.00286048
-15.27384682,0.00000000,-4.29072300,4.10617600,0.00184547
-15.19384682,0.00000000,-4.27534400,4.02928100,0.00098425
-15.11384682,-0.01537894,-4.19845000,3.96776600,0.00036909
-15.03384682,0.00000000,-4.02928100,3.93700800,0.00003076
-14.95384681,0.01537894,-3.78321800,3.92162900,0.00003076
-14.87384681,0.04613681,-3.44488200,3.92162900,0.00036909
-14.79384681,0.09227362,-3.01427100,3.93700800,0.00098425
-14.71384681,0.16916830,-2.50676700,3.93700800,0.00184547
-14.63384681,0.23068400,-1.98388300,3.95238700,0.00286048
-14.55384681,0.30757870,-1.43024100,3.95238700,0.00396777
-14.47384681,0.35371550,-0.92273620,3.95238700,0.00501353
-14.39384681,0.33833660,-0.49212600,3.93700800,0.00602854
-14.31384681,0.27682080,-0.18454720,3.92162900,0.00688976
-14.23384680,0.10765260,-0.01537894,3.92162900,0.00756644
-14.15384680,-0.13841040,-0.01537894,3.92162900,0.00805856
-14.07384680,-0.49212600,-0.18454720,3.92162900,0.00839690
-13.99384680,-0.92273620,-0.49212600,3.93700800,0.00855069
-13.91384680,-1.43024100,-0.92273620,3.95238700,0.00858145
-13.83384680,-1.96850400,-1.43024100,3.95238700,0.00851993
-13.75384680,-2.52214600,-1.98388300,3.95238700,0.00836614
-13.67384680,-3.01427100,-2.50676700,3.95238700,0.00821235
-13.59384680,-3.44488200,-3.01427100,3.93700800,0.00805856
-13.51384680,-3.73708200,-3.44488200,3.93700800,0.00793553
-13.43384679,-3.90625000,-3.78321800,3.92162900,0.00787402
-13.35384679,-3.90625000,-4.02928100,3.90625000,0.00784326
-13.27384679,-3.73708200,-4.19845000,3.89087100,0.00784326
-13.19384679,-3.44488200,-4.27534400,3.84473400,0.00787402
-13.11384679,-3.01427100,-4.29072300,3.78321800,0.00787402
-13.03384679,-2.52214600,-4.25996500,3.72170300,0.00790477
-12.95384679,-1.96850400,-4.18307100,3.64480800,0.00790477
-12.87384679,-1.43024100,-4.10617600,3.59867100,0.00790477
-12.79384679,-0.93811510,-4.02928100,3.59867100,0.00787402
-12.71384678,-0.49212600,-3.96776600,3.66018700,0.00784326
-12.63384678,-0.13841040,-3.92162900,3.81397600,0.00784326
-12.55384678,0.12303150,-3.92162900,4.06003900,0.00784326
-12.47384678,0.30757870,-3.96776600,4.41375400,0.00784326
-12.39384678,0.43061020,-4.02928100,4.85974400,0.00787402
-12.31384678,0.50750490,-4.10617600,5.38262700,0.00790477
-12.23384678,0.53826270,-4.18307100,5.92089000,0.00790477
-12.15384678,0.53826270,-4.25996500,6.47453200,0.00790477
-12.07384678,0.50750490,-4.29072300,6.96665800,0.00790477
-11.99384677,0.43061020,-4.27534400,7.38188900,0.00787402
-11.91384677,0.30757870,-4.19845000,7.67408900,0.00784326
-11.83384677,0.12303150,-4.02928100,7.82787800,0.00784326
-11.75384677,-0.13841040,-3.78321800,7.82787800,0.00784326
-11.67384677,-0.49212600,-3.44488200,7.67408900,0.00784326
-11.59384677,-0.93811510,-3.01427100,7.38188900,0.00787402
-11.51384677,-1.43024100,-2.50676700,6.96665800,0.00790477
-11.43384677,-1.96850400,-1.98388300,6.47453200,0.00790477
-11.35384677,-2.52214600,-1.43024100,5.92089000,0.00790477
-11.27384677,-3.01427100,-0.92273620,5.38262700,0.00790477
-11.19384676,-3.44488200,-0.49212600,4.87512300,0.00787402
-11.11384676,-3.73708200,-0.16916830,4.42913300,0.00787402
-11.03384676,-3.90625000,-0.01537894,4.06003900,0.00784326
-10.95384676,-3.90625000,-0.03075787,3.79859700,0.00781250
-10.87384676,-3.73708200,-0.23068400,3.61405000,0.00778174
-10.79384676,-3.44488200,-0.58439960,3.50639700,0.00768947
-10.71384676,-3.01427100,-1.09190400,3.42950300,0.00756644
-10.63384676,-2.52214600,-1.67630400,3.41412400,0.00744341
-10.55384676,-1.96850400,-2.27608300,3.41412400,0.00728962
-10.47384675,-1.43024100,-2.86048200,3.42950300,0.00719734
-10.39384675,-0.92273620,-3.35260800,3.49101900,0.00719734
-10.31384675,-0.49212600,-3.70632400,3.59867100,0.00732037
-10.23384675,-0.13841040,-3.89087100,3.79859700,0.00762795
-10.15384675,0.10765260,-3.90625000,4.07541800,0.00812008
-10.07384675,0.27682080,-3.75246000,4.47527100,0.00882751
-9.99384675,0.33833660,-3.44488200,4.96739600,0.00971949
-9.91384675,0.35371550,-3.02965000,5.53641700,0.01076526
-9.83384675,0.30757870,-2.52214600,6.16695300,0.01184178
-9.75384674,0.23068400,-1.96850400,6.78211100,0.01294907
-9.67384674,0.16916830,-1.43024100,7.32037400,0.01393332
-9.59384674,0.09227362,-0.93811510,7.72022600,0.01476378
-9.51384674,0.04613681,-0.49212600,7.93553100,0.01534818
-9.43384674,0.01537894,-0.13841040,7.93553100,0.01565576
-9.35384674,0.00000000,0.12303150,7.68946800,0.01565576
-9.27384674,-0.01537894,0.30757870,7.18196300,0.01534818
-9.19384674,0.00000000,0.43061020,6.45915300,0.01476378
-9.11384674,0.00000000,0.50750490,5.53641700,0.01393332
-9.03384674,0.00000000,0.53826270,4.49065000,0.01294907
-8.95384673,0.00000000,0.53826270,3.41412400,0.01184178
-8.87384673,0.00000000,0.50750490,2.35297700,0.01076526
-8.79384673,0.00000000,0.43061020,1.41486200,0.00971949
-8.71384673,-0.01537894,0.30757870,0.66129420,0.00882751
-8.63384673,0.00000000,0.12303150,0.15378940,0.00812008
-8.55384673,0.01537894,-0.13841040,-0.07689468,0.00762795
-8.47384673,0.04613681,-0.49212600,-0.04613681,0.00732037
-8.39384673,0.09227362,-0.93811510,0.24606300,0.00719734
-8.31384673,0.16916830,-1.43024100,0.73818890,0.00719734
-8.23384672,0.23068400,-1.96850400,1.36872500,0.00728962
-8.15384672,0.30757870,-2.52214600,2.04539800,0.00744341
-8.07384672,0.33833660,-3.01427100,2.69131400,0.00756644
-7.99384672,0.33833660,-3.44488200,3.26033400,0.00765871
-7.91384672,0.26144190,-3.73708200,3.66018700,0.00775098
-7.83384672,0.10765260,-3.90625000,3.89087100,0.00781250
-7.75384672,-0.12303150,-3.90625000,3.90625000,0.00787402
-7.67384672,-0.44598910,-3.73708200,3.72170300,0.00796629
-7.59384672,-0.83046260,-3.44488200,3.35260800,0.00808932
-7.51384672,-1.26107300,-3.01427100,2.86048200,0.00821235
-7.43384671,-1.73782000,-2.52214600,2.27608300,0.00836614
-7.35384671,-2.21456700,-1.96850400,1.67630400,0.00851993
-7.27384671,-2.67593500,-1.43024100,1.09190400,0.00858145
-7.19384671,-3.10654500,-0.92273620,0.58439960,0.00855069
-7.11384671,-3.47564000,-0.49212600,0.23068400,0.00836614
-7.03384671,-3.78321800,-0.13841040,0.03075787,0.00805856
-6.95384671,-4.04466000,0.10765260,0.01537894,0.00759720
-6.87384671,-4.22920700,0.27682080,0.16916830,0.00698204
-6.79384671,-4.36761800,0.33833660,0.49212600,0.00621309
-6.71384670,-4.44451300,0.35371550,0.92273620,0.00535187
-6.63384670,-4.49065000,0.30757870,1.43024100,0.00442913
-6.55384670,-4.49065000,0.23068400,1.98388300,0.00347564
-6.47384670,-4.44451300,0.15378940,2.50676700,0.00255290
-6.39384670,-4.36761800,0.09227362,3.01427100,0.00166093
-6.31384670,-4.22920700,0.03075787,3.44488200,0.00092274
-6.23384670,-4.04466000,0.00000000,3.78321800,0.00027682
-6.15384670,-3.78321800,0.00000000,4.02928100,-0.00024606
-6.07384670,-3.47564000,0.03075787,4.19845000,-0.00061516
-5.99384669,-3.10654500,0.09227362,4.27534400,-0.00086122
-5.91384669,-2.67593500,0.15378940,4.29072300,-0.00101501
-5.83384669,-2.21456700,0.23068400,4.25996500,-0.00107653
-5.75384669,-1.73782000,0.30757870,4.18307100,-0.00107653
-5.67384669,-1.26107300,0.33833660,4.10617600,-0.00101501
-5.59384669,-0.83046260,0.32295760,4.02928100,-0.00086122
-5.51384669,-0.44598910,0.24606300,3.96776600,-0.00061516
-5.43384669,-0.12303150,0.10765260,3.93700800,-0.00024606
-5.35384669,0.10765260,-0.12303150,3.92162900,0.00027682
-5.27384669,0.26144190,-0.39985230,3.92162900,0.00092274
-5.19384668,0.33833660,-0.73818890,3.93700800,0.00166093
-5.11384668,0.33833660,-1.10728300,3.93700800,0.00255290
-5.03384668,0.30757870,-1.50713600,3.95238700,0.00347564
-4.95384668,0.23068400,-1.90698800,3.95238700,0.00442913
-4.87384668,0.16916830,-2.33759800,3.95238700,0.00535187
-4.79384668,0.09227362,-2.76820900,3.93700800,0.00621309
-4.71384668,0.04613681,-3.22957700,3.92162900,0.00698204
-4.63384668,0.01537894,-3.69094500,3.92162900,0.00759720
-4.55384668,0.00000000,-4.15231300,3.92162900,0.00805856
-4.47384667,-0.01537894,-4.62906000,3.92162900,0.00836614
-4.39384667,0.00000000,-5.10580700,3.93700800,0.00855069
-4.31384667,0.00000000,-5.55179600,3.95238700,0.00858145
-4.23384667,0.00000000,-5.99778500,3.95238700,0.00851993
-4.15384667,0.00000000,-6.39763700,3.95238700,0.00836614
-4.07384667,0.00000000,-6.78211100,3.95238700,0.00821235
-3.99384667,0.00000000,-7.13582600,3.93700800,0.00805856
-3.91384667,0.00000000,-7.44340500,3.92162900,0.00793553
-3.83384667,0.00000000,-7.72022600,3.92162900,0.00787402
-3.75384666,0.00000000,-7.95091000,3.92162900,0.00784326
-3.67384666,0.00000000,-8.15083600,3.92162900,0.00784326
-3.59384666,0.00000000,-8.28924700,3.93700800,0.00787402
-3.51384666,0.00000000,-8.39689900,3.95238700,0.00787402
-3.43384666,0.00000000,-8.44303500,3.95238700,0.00790477
-3.35384666,0.00000000,-8.44303500,3.95238700,0.00790477
-3.27384666,0.00000000,-8.39689900,3.95238700,0.00790477
-3.19384666,0.00000000,-8.30462600,3.93700800,0.00787402
-3.11384666,-0.01537894,-8.16621500,3.92162900,0.00784326
-3.03384666,0.00000000,-7.96628900,3.92162900,0.00784326
-2.95384665,0.01537894,-7.70484700,3.92162900,0.00784326
-2.87384665,0.04613681,-7.39726800,3.92162900,0.00784326
-2.79384665,0.09227362,-7.04355200,3.93700800,0.00787402
-2.71384665,0.16916830,-6.61294300,3.95238700,0.00790477
-2.63384665,0.23068400,-6.16695300,3.95238700,0.00790477
-2.55384665,0.30757870,-5.69020700,3.95238700,0.00790477
-2.47384665,0.35371550,-5.21345900,3.95238700,0.00790477
-2.39384665,0.33833660,-4.76747000,3.93700800,0.00787402
-2.31384665,0.27682080,-4.36761800,3.92162900,0.00784326
-2.23384664,0.10765260,-4.04466000,3.92162900,0.00784326
-2.15384664,-0.13841040,-3.81397600,3.92162900,0.00784326
-2.07384664,-0.49212600,-3.66018700,3.92162900,0.00784326
-1.99384664,-0.92273620,-3.59867100,3.93700800,0.00787402
-1.91384664,-1.43024100,-3.59867100,3.95238700,0.00790477
-1.83384664,-1.96850400,-3.64480800,3.95238700,0.00790477
-1.75384664,-2.52214600,-3.72170300,3.95238700,0.00790477
-1.67384664,-3.01427100,-3.78321800,3.96776600,0.00787402
-1.59384664,-3.44488200,-3.82935500,4.01390200,0.00787402
-1.51384663,-3.73708200,-3.86011300,4.06003900,0.00784326
-1.43384663,-3.90625000,-3.90625000,3.99852300,0.00784326
-1.35384663,-3.90625000,-3.95238700,3.79859700,0.00787402
-1.27384663,-3.73708200,-4.02928100,3.36798700,0.00793553
-1.19384663,-3.44488200,-4.13693400,2.70669300,0.00805856
-1.11384663,-3.01427100,-4.27534400,1.83009300,0.00821235
-1.03384663,-2.52214600,-4.42913300,0.87659940,0.00836614
-0.95384663,-1.96850400,-4.56754400,0.00000000,0.00851993
-0.87384663,-1.43024100,-4.62906000,-0.38447340,0.00858145
-0.79384663,-0.93811510,-4.61368100,0.07689468,0.00855069
-0.71384662,-0.49212600,-4.45989200,1.29183100,0.00839690
-0.63384662,-0.13841040,-4.13693400,2.99889300,0.00805856
-0.55384662,0.12303150,-3.66018700,4.81360700,0.00756644
-0.47384662,0.30757870,-2.99889300,6.33612200,0.00688976
-0.39384662,0.43061020,-2.18380900,7.32037400,0.00602854
-0.31384662,0.50750490,-1.24569400,7.78174200,0.00501353
-0.23384662,0.53826270,-0.24606300,8.07394100,0.00396777
-0.15384662,0.53826270,0.78432570,9.01205700,0.00286048
-0.07384662,0.49212600,1.75319900,11.78026000,0.00184547
0.00615339,0.36909450,2.61441900,17.80881000,0.00098425
0.08615339,0.21530510,3.30647100,28.37414000,0.00036909
0.16615339,0.06151574,3.76783900,44.53740000,0.00003076
0.24615339,-0.04613681,4.01390200,66.86761000,0.00003076
0.32615339,-0.06151574,3.99852300,95.38016000,0.00036909
0.40615339,0.01537894,3.78321800,129.36760000,0.00098425
0.48615339,0.18454720,3.36798700,167.43050000,0.00184547
0.56615339,0.39985230,2.82972400,207.63100000,0.00286048
0.64615339,0.52288380,2.21456700,247.55470000,0.00396777
0.72615339,0.32295760,1.58403000,284.64870000,0.00501353
0.80615340,-0.41523130,1.01501000,316.48310000,0.00599779
0.88615340,-1.63016700,0.52288380,340.98180000,0.00685901
0.96615340,-3.13730300,0.13841040,356.62210000,0.00756644
1.04615340,-4.67519700,-0.10765260,362.66610000,0.00808932
1.12615340,-5.98240600,-0.23068400,359.15970000,0.00848917
1.20615340,-6.90514200,-0.24606300,346.90260000,0.00873524
1.28615340,-7.42802600,-0.18454720,327.30990000,0.00891978
1.36615340,-7.82787800,-0.06151574,302.24220000,0.00898130
1.44615340,-8.59682500,0.06151574,273.76040000,0.00898130
1.52615341,-10.74988000,0.15378940,243.83300000,0.00885827
1.60615341,-15.24053000,0.15378940,214.19780000,0.00858145
1.68615341,-22.56090000,0.07689468,186.22350000,0.00824311
1.76615341,-32.94168000,0.01537894,160.72530000,0.00793553
1.84615341,-46.19833000,0.01537894,138.08750000,0.00778174
1.92615341,-61.91560000,0.16916830,118.21790000,0.00790477
2.00615341,-79.49372000,0.50750490,100.71670000,0.00827387
2.08615341,-98.31754000,0.99963080,85.04552000,0.00891978
2.16615341,-117.86420000,1.58403000,70.63545000,0.00962722
2.24615342,-137.84140000,2.04539800,56.99434000,0.01018086
2.32615342,-158.49530000,2.03002000,43.84534000,0.00993479
2.40615342,-180.19500000,1.23031500,31.23462000,0.00842766
2.48615342,-203.01730000,-0.36909450,19.39284000,0.00572097
2.56615342,-226.94700000,-2.62979800,8.70447700,0.00206078
2.64615342,-251.78400000,-5.27497500,-0.41523130,-0.00209154
2.72615342,-277.17460000,-7.99704600,-7.58181600,-0.00624385
2.80615342,-302.64210000,-10.58071000,-12.65686000,-0.00999631
2.88615342,-327.66360000,-12.96444000,-15.68651000,-0.01334892
2.96615342,-351.71620000,-15.33280000,-16.94759000,-0.01657849
3.04615343,-374.33870000,-18.14714000,-17.10138000,-0.02057702
3.12615343,-395.40780000,-22.39173000,-16.82456000,-0.02694390
3.20615343,-414.89290000,-29.02005000,-16.44008000,-0.03734006
3.28615343,-432.54800000,-38.58575000,-16.10175000,-0.05274975
3.36615343,-448.09610000,-51.30413000,-15.84030000,-0.07369587
3.44615343,-461.27580000,-67.08292000,-15.51735000,-0.10020920
3.52615343,-471.88730000,-85.50688000,-14.96371000,-0.13167450
3.60615343,-479.71510000,-105.96090000,-14.05635000,-0.16707680
3.68615343,-484.72870000,-127.73740000,-12.68762000,-0.20518580
3.76615344,-486.94320000,-150.20610000,-10.85753000,-0.24467890
3.84615344,-486.55880000,-172.90540000,-8.75061400,-0.28447960
3.92615344,-483.92900000,-195.82000000,-6.56680600,-0.32397270
4.00615344,-479.56140000,-219.10370000,-4.45989200,-0.36285060
4.08615344,-473.74810000,-242.69500000,-2.50676700,-0.40074430
4.16615344,-466.75070000,-266.53230000,-0.76894680,-0.43728470
4.24615344,-458.67680000,-290.44660000,0.70743110,-0.47228710
4.32615344,-449.54170000,-314.16090000,1.93774600,-0.50544420
4.40615344,-439.26860000,-337.33700000,2.93737700,-0.53650960
4.48615345,-427.74970000,-359.55950000,3.76783900,-0.56505290
4.56615345,-414.89290000,-380.35180000,4.45989200,-0.59067420
4.64615345,-400.59050000,-399.28330000,5.07504900,-0.61288140
4.72615345,-384.88860000,-416.13860000,5.65944900,-0.63127460
4.80615345,-368.18710000,-430.68710000,6.24384800,-0.64542320
4.88615345,-351.02420000,-442.62120000,6.85900500,-0.65480430
4.96615345,-333.92290000,-451.64860000,7.50492100,-0.65895670
5.04615345,-317.37510000,-457.53870000,8.18159400,-0.65757260
5.12615345,-301.68860000,-460.15310000,8.87364700,-0.65049830
5.20615345,-287.00170000,-459.47650000,9.53494100,-0.63791830
5.28615346,-273.17600000,-455.60100000,10.16548000,-0.62023250
5.36615346,-259.95010000,-448.83420000,10.71912000,-0.59808680
5.44615346,-246.63200000,-439.51460000,11.19587000,-0.57237330
5.52615346,-232.69870000,-428.18030000,11.58034000,-0.54404530
5.60615346,-218.08870000,-415.44660000,11.84178000,-0.51427170
5.68615346,-203.01730000,-401.80550000,11.94943000,-0.48400590
5.76615346,-187.88450000,-387.65680000,11.87254000,-0.45401700
5.84615346,-173.13610000,-373.24680000,11.61110000,-0.42485850
5.92615346,-159.18740000,-358.66760000,11.13435000,-0.39671500
6.00615347,-146.33060000,-343.87300000,10.47305000,-0.36961740
6.08615347,-134.62720000,-328.77090000,9.64259300,-0.34331940
6.16615347,-123.93880000,-313.19200000,8.68909800,-0.31754430
6.24615347,-113.69650000,-296.90570000,7.65871000,-0.29176920
6.32615347,-103.36180000,-279.83510000,6.64370100,-0.26574800
6.40615347,-92.84264000,-262.30310000,5.69020700,-0.23988070
6.48615347,-82.23117000,-244.78650000,4.85974400,-0.21478220
6.56615347,-71.77350000,-227.79280000,4.18307100,-0.19131400
6.64615347,-61.74643000,-211.82950000,3.70632400,-0.17021410
6.72615348,-52.47293000,-197.23490000,3.39874500,-0.15209770
6.80615348,-44.13755000,-184.14740000,3.26033400,-0.13718010
6.88615348,-36.86331000,-172.50550000,3.26033400,-0.12530760
6.96615348,-30.55795000,-162.00170000,3.33722900,-0.11589570
7.04615348,-24.89850000,-151.95930000,3.47564000,-0.10783710
7.12615348,-19.54663000,-141.82460000,3.61405000,-0.09996309
7.20615348,-14.48696000,-131.45910000,3.75246000,-0.09187377
7.28615348,-9.82714000,-121.03220000,3.84473400,-0.08344612
7.36615348,-5.70558500,-110.82060000,3.90625000,-0.07486466
7.44615348,-2.33759800,-101.17800000,3.93700800,-0.06643701
7.52615349,0.13841040,-92.44278000,3.95238700,-0.05862451
7.60615349,1.63016700,-84.84559000,3.95238700,-0.05173475
7.68615349,2.15305100,-78.40182000,3.95238700,-0.04595226
7.76615349,1.86085100,-73.00381000,3.95238700,-0.04127707
7.84615349,1.04576800,-68.14407000,3.95238700,-0.03734006
7.92615349,0.03075787,-63.37659000,3.95238700,-0.03367987
8.00615349,-1.09190400,-58.56299000,3.93700800,-0.03026575
8.08615349,-2.21456700,-53.78014000,3.92162900,-0.02718996
8.16615349,-3.35260800,-49.21259000,3.92162900,-0.02460630
8.24615350,-4.52140800,-45.07566000,3.92162900,-0.02266855
8.32615350,-5.76710100,-41.58464000,3.92162900,-0.02149975
8.40615350,-7.16658400,-38.90871000,3.93700800,-0.02125369
8.48615350,-8.71985600,-37.03248000,3.95238700,-0.02180733
8.56615350,-10.42692000,-35.83292000,3.95238700,-0.02306841
8.64615350,-12.19550000,-34.92556000,3.95238700,-0.02469857
8.72615350,-13.96407000,-33.92593000,3.95238700,-0.02639026
8.80615350,-15.70189000,-32.58797000,3.93700800,-0.02798967
8.88615350,-17.36282000,-30.83477000,3.92162900,-0.02946604
8.96615351,-18.90071000,-28.66634000,3.92162900,-0.03075787
9.04615351,-20.28482000,-26.17495000,3.92162900,-0.03195743
9.12615351,-21.48437000,-23.48363000,3.92162900,-0.03312623
9.20615351,-22.49938000,-20.73080000,3.93700800,-0.03426427
9.28615351,-23.31447000,-18.02411000,3.95238700,-0.03546383
9.36615351,-23.97576000,-15.39431000,3.95238700,-0.03666339
9.44615351,-24.52940000,-12.81065000,3.95238700,-0.03773991
9.52615351,-25.02153000,-10.13472000,3.95238700,-0.03860113
9.60615351,-25.55979000,-7.36651000,3.93700800,-0.03918553
9.68615351,-26.19033000,-4.49065000,3.92162900,-0.03946235
9.76615352,-26.99003000,-1.50713600,3.92162900,-0.03940084
9.84615352,-27.97429000,1.52251500,3.92162900,-0.03897022
9.92615352,-29.17384000,4.56754400,3.92162900,-0.03826280
10.00615352,-30.52719000,7.58181600,3.93700800,-0.03727854
10.08615352,-31.97281000,10.50381000,3.95238700,-0.03604823
10.16615352,-33.40305000,13.27202000,3.95238700,-0.03460261
10.24615352,-34.69488000,15.85568000,3.95238700,-0.03297244
10.32615352,-35.69451000,18.20866000,3.95238700,-0.03112697
10.40615352,-36.27891000,20.26944000,3.93700800,-0.02912771
10.48615353,-36.32505000,21.91498000,3.93700800,-0.02697466
10.56615353,-35.78678000,23.11454000,3.92162900,-0.02469857
10.64615353,-34.66412000,23.82197000,3.90625000,-0.02233022
10.72615353,-32.95706000,24.03728000,3.89087100,-0.01993110
10.80615353,-30.74249000,23.76046000,3.84473400,-0.01747047
10.88615353,-28.12807000,23.05302000,3.78321800,-0.01500984
10.96615353,-25.19070000,21.97650000,3.72170300,-0.01254921
11.04615353,-22.06877000,20.62315000,3.64480800,-0.01008858
11.12615353,-18.80844000,19.02374000,3.59867100,-0.00765871
11.20615353,-15.53273000,17.19365000,3.59867100,-0.00525960
