Time,Channel A,Channel B,Channel C,Channel D
(ns),(mV),(mV),(mV),(V)

-15.37297283,3.90625000,-0.13841040,7.56643700,0.00024606
-15.29297282,3.75246000,-0.49212600,6.92052100,0.00089198
-15.21297282,3.44488200,-0.93811510,6.10543700,0.00166093
-15.13297282,3.02965000,-1.43024100,5.18270100,0.00252215
-15.05297282,2.52214600,-1.96850400,4.19845000,0.00347564
-14.97297282,1.96850400,-2.52214600,3.16806100,0.00442913
-14.89297282,1.43024100,-3.01427100,2.18380900,0.00535187
-14.81297282,0.92273620,-3.44488200,1.32258800,0.00621309
-14.73297282,0.49212600,-3.73708200,0.61515740,0.00695128
-14.65297282,0.13841040,-3.90625000,0.13841040,0.00756644
-14.57297281,-0.10765260,-3.90625000,-0.07689468,0.00808932
-14.49297281,-0.27682080,-3.73708200,-0.03075787,0.00845842
-14.41297281,-0.33833660,-3.44488200,0.26144190,0.00873524
-14.33297281,-0.35371550,-3.01427100,0.73818890,0.00888903
-14.25297281,-0.30757870,-2.52214600,1.36872500,0.00898130
-14.17297281,-0.23068400,-1.96850400,2.04539800,0.00898130
-14.09297281,-0.15378940,-1.43024100,2.69131400,0.00891978
-14.01297281,-0.09227362,-0.92273620,3.26033400,0.00873524
-13.93297281,-0.03075787,-0.49212600,3.66018700,0.00848917
-13.85297280,0.00000000,-0.13841040,3.89087100,0.00808932
-13.77297280,0.00000000,0.10765260,3.90625000,0.00756644
-13.69297280,-0.03075787,0.27682080,3.72170300,0.00685901
-13.61297280,-0.09227362,0.33833660,3.35260800,0.00599779
-13.53297280,-0.15378940,0.35371550,2.86048200,0.00501353
-13.45297280,-0.23068400,0.30757870,2.27608300,0.00396777
-13.37297280,-0.30757870,0.23068400,1.67630400,0.00286048
-13.29297280,-0.33833660,0.16916830,1.09190400,0.00184547
-13.21297280,-0.33833660,0.09227362,0.58439960,0.00098425
-13.13297280,-0.26144190,0.04613681,0.21530510,0.00036909
-13.05297279,-0.10765260,0.01537894,0.03075787,0.00003076
-12.97297279,0.12303150,0.00000000,0.03075787,0.00003076
-12.89297279,0.44598910,-0.01537894,0.21530510,0.00036909
-12.81297279,0.83046260,0.00000000,0.58439960,0.00098425
-12.73297279,1.26107300,0.00000000,1.09190400,0.00184547
-12.65297279,1.73782000,0.00000000,1.67630400,0.00286048
-12.57297279,2.21456700,0.00000000,2.27608300,0.00396777
-12.49297279,2.67593500,0.00000000,2.86048200,0.00501353
-12.41297279,3.10654500,0.00000000,3.35260800,0.00602854
-12.33297278,3.47564000,-0.01537894,3.70632400,0.00688976
-12.25297278,3.78321800,0.00000000,3.89087100,0.00756644
-12.17297278,4.04466000,0.01537894,3.90625000,0.00805856
-12.09297278,4.22920700,0.04613681,3.75246000,0.00839690
-12.01297278,4.36761800,0.09227362,3.44488200,0.00855069
-11.93297278,4.44451300,0.16916830,3.02965000,0.00858145
-11.85297278,4.49065000,0.23068400,2.52214600,0.00851993
-11.77297278,4.49065000,0.30757870,1.96850400,0.00836614
-11.69297278,4.44451300,0.35371550,1.43024100,0.00821235
-11.61297277,4.36761800,0.33833660,0.93811510,0.00805856
-11.53297277,4.22920700,0.27682080,0.49212600,0.00793553
-11.45297277,4.02928100,0.10765260,0.13841040,0.00784326
-11.37297277,3.79859700,-0.13841040,-0.12303150,0.00784326
-11.29297277,3.52177600,-0.49212600,-0.30757870,0.00793553
-11.21297277,3.19881900,-0.92273620,-0.43061020,0.00805856
-11.13297277,2.82972400,-1.43024100,-0.50750490,0.00821235
-11.05297277,2.44525100,-1.96850400,-0.53826270,0.00836614
-10.97297277,2.04539800,-2.52214600,-0.53826270,0.00851993
-10.89297277,1.61478800,-3.02965000,-0.50750490,0.00858145
-10.81297276,1.16879900,-3.44488200,-0.43061020,0.00855069
-10.73297276,0.70743110,-3.75246000,-0.30757870,0.00839690
-10.65297276,0.24606300,-3.90625000,-0.12303150,0.00805856
-10.57297276,-0.24606300,-3.89087100,0.13841040,0.00756644
-10.49297276,-0.75356790,-3.70632400,0.46136810,0.00688976
-10.41297276,-1.26107300,-3.35260800,0.83046260,0.00602854
-10.33297276,-1.76857800,-2.86048200,1.27645200,0.00501353
-10.25297276,-2.27608300,-2.27608300,1.73782000,0.00396777
-10.17297276,-2.75283000,-1.67630400,2.21456700,0.00286048
-10.09297275,-3.18344000,-1.09190400,2.67593500,0.00184547
-10.01297275,-3.53715500,-0.58439960,3.10654500,0.00098425
-9.93297275,-3.78321800,-0.23068400,3.47564000,0.00036909
-9.85297275,-3.90625000,-0.03075787,3.78321800,0.00003076
-9.77297275,-3.89087100,-0.01537894,4.04466000,0.00003076
-9.69297275,-3.73708200,-0.16916830,4.22920700,0.00036909
-9.61297275,-3.42950300,-0.49212600,4.36761800,0.00098425
-9.53297275,-3.01427100,-0.92273620,4.44451300,0.00184547
-9.45297275,-2.52214600,-1.43024100,4.49065000,0.00286048
-9.37297274,-1.96850400,-1.98388300,4.49065000,0.00396777
-9.29297274,-1.43024100,-2.50676700,4.45989200,0.00501353
-9.21297274,-0.92273620,-2.99889300,4.36761800,0.00602854
-9.13297274,-0.49212600,-3.42950300,4.24458600,0.00688976
-9.05297274,-0.13841040,-3.78321800,4.04466000,0.00756644
-8.97297274,0.10765260,-4.04466000,3.78321800,0.00805856
-8.89297274,0.27682080,-4.24458600,3.42950300,0.00839690
-8.81297274,0.33833660,-4.36761800,2.99889300,0.00855069
-8.73297274,0.35371550,-4.45989200,2.50676700,0.00858145
-8.65297274,0.30757870,-4.49065000,1.98388300,0.00851993
-8.57297273,0.23068400,-4.49065000,1.43024100,0.00836614
-8.49297273,0.16916830,-4.44451300,0.92273620,0.00821235
-8.41297273,0.09227362,-4.36761800,0.47674700,0.00805856
-8.33297273,0.04613681,-4.22920700,0.16916830,0.00793553
-8.25297273,0.01537894,-4.04466000,0.01537894,0.00784326
-8.17297273,0.00000000,-3.78321800,0.04613681,0.00784326
-8.09297273,-0.01537894,-3.47564000,0.27682080,0.00793553
-8.01297273,0.00000000,-3.10654500,0.69205210,0.00805856
-7.93297273,0.00000000,-2.67593500,1.24569400,0.00821235
-7.85297272,0.00000000,-2.21456700,1.90698800,0.00836614
-7.77297272,0.00000000,-1.73782000,2.58366100,0.00851993
-7.69297272,0.00000000,-1.27645200,3.21419800,0.00858145
-7.61297272,0.00000000,-0.83046260,3.69094500,0.00855069
-7.53297272,0.00000000,-0.46136810,3.98314500,0.00839690
-7.45297272,0.00000000,-0.13841040,4.01390200,0.00805856
-7.37297272,0.00000000,0.12303150,3.76783900,0.00756644
-7.29297272,0.00000000,0.30757870,3.22957700,0.00688976
-7.21297272,0.00000000,0.43061020,2.42987200,0.00602854
-7.13297272,0.00000000,0.50750490,1.43024100,0.00501353
-7.05297271,0.00000000,0.53826270,0.30757870,0.00396777
-6.97297271,0.00000000,0.53826270,-0.84584150,0.00286048
-6.89297271,0.00000000,0.50750490,-1.93774600,0.00184547
-6.81297271,0.00000000,0.43061020,-2.86048200,0.00098425
-6.73297271,0.00000000,0.29219980,-3.52177600,0.00033834
-6.65297271,0.00000000,0.10765260,-3.87549200,0.00003076
-6.57297271,0.00000000,-0.12303150,-3.87549200,0.00006152
-6.49297271,0.00000000,-0.41523130,-3.52177600,0.00046137
-6.41297271,0.00000000,-0.73818890,-2.86048200,0.00116880
-6.33297270,0.00000000,-1.10728300,-1.93774600,0.00218381
-6.25297270,0.00000000,-1.50713600,-0.84584150,0.00335261
-6.17297270,0.00000000,-1.90698800,0.30757870,0.00455217
-6.09297270,0.00000000,-2.32221900,1.43024100,0.00572097
-6.01297270,0.00000000,-2.75283000,2.42987200,0.00670522
-5.93297270,0.00000000,-3.19881900,3.22957700,0.00741265
-5.85297270,0.00000000,-3.67556500,3.76783900,0.00778174
-5.77297270,0.00000000,-4.18307100,4.01390200,0.00778174
-5.69297270,0.00000000,-4.72133400,3.98314500,0.00741265
-5.61297269,0.00000000,-5.29035400,3.69094500,0.00670522
-5.53297269,0.00000000,-5.89013200,3.21419800,0.00572097
-5.45297269,0.00000000,-6.47453200,2.58366100,0.00455217
-5.37297269,0.00000000,-7.01279500,1.90698800,0.00335261
-5.29297269,0.00000000,-7.47416300,1.24569400,0.00218381
-5.21297269,0.00000000,-7.81250000,0.69205210,0.00116880
-5.13297269,0.00000000,-7.98166800,0.27682080,0.00046137
-5.05297269,0.00000000,-7.95091000,0.04613681,0.00006152
-4.97297269,0.00000000,-7.67408900,0.01537894,0.00003076
-4.89297269,0.00000000,-7.18196300,0.16916830,0.00033834
-4.81297268,0.00000000,-6.44377400,0.47674700,0.00098425
-4.73297268,0.00000000,-5.53641700,0.92273620,0.00184547
-4.65297268,0.00000000,-4.49065000,1.43024100,0.00286048
-4.57297268,0.00000000,-3.41412400,1.98388300,0.00396777
-4.49297268,0.00000000,-2.35297700,2.50676700,0.00501353
-4.41297268,0.00000000,-1.41486200,3.01427100,0.00602854
-4.33297268,0.00000000,-0.67667320,3.44488200,0.00688976
-4.25297268,0.00000000,-0.15378940,3.78321800,0.00756644
-4.17297268,0.00000000,0.09227362,4.02928100,0.00805856
-4.09297267,0.00000000,0.09227362,4.19845000,0.00839690
-4.01297267,0.00000000,-0.15378940,4.27534400,0.00855069
-3.93297267,0.00000000,-0.58439960,4.29072300,0.00858145
-3.85297267,0.00000000,-1.12266200,4.25996500,0.00851993
-3.77297267,0.00000000,-1.73782000,4.18307100,0.00836614
-3.69297267,0.00000000,-2.35297700,4.10617600,0.00821235
-3.61297267,0.00000000,-2.92199800,4.02928100,0.00805856
-3.53297267,-0.01537894,-3.39874500,3.96776600,0.00793553
-3.45297267,0.00000000,-3.76783900,3.93700800,0.00787402
-3.37297266,0.01537894,-4.04466000,3.92162900,0.00784326
-3.29297266,0.04613681,-4.21382900,3.92162900,0.00784326
-3.21297266,0.09227362,-4.29072300,3.93700800,0.00787402
-3.13297266,0.16916830,-4.29072300,3.93700800,0.00787402
-3.05297266,0.23068400,-4.25996500,3.95238700,0.00790477
-2.97297266,0.30757870,-4.18307100,3.95238700,0.00790477
-2.89297266,0.35371550,-4.10617600,3.93700800,0.00790477
-2.81297266,0.33833660,-4.02928100,3.93700800,0.00787402
-2.73297266,0.27682080,-3.96776600,3.92162900,0.00784326
-2.65297266,0.10765260,-3.93700800,3.92162900,0.00784326
-2.57297265,-0.13841040,-3.92162900,3.93700800,0.00784326
-2.49297265,-0.49212600,-3.92162900,3.96776600,0.00784326
-2.41297265,-0.92273620,-3.93700800,4.02928100,0.00787402
-2.33297265,-1.43024100,-3.93700800,4.10617600,0.00790477
-2.25297265,-1.96850400,-3.95238700,4.18307100,0.00790477
-2.17297265,-2.52214600,-3.95238700,4.25996500,0.00790477
-2.09297265,-3.01427100,-3.93700800,4.29072300,0.00790477
-2.01297265,-3.42950300,-3.93700800,4.29072300,0.00787402
-1.93297265,-3.73708200,-3.92162900,4.21382900,0.00784326
-1.85297264,-3.89087100,-3.92162900,4.04466000,0.00784326
-1.77297264,-3.90625000,-3.93700800,3.76783900,0.00784326
-1.69297264,-3.78321800,-3.96776600,3.39874500,0.00784326
-1.61297264,-3.53715500,-4.02928100,2.92199800,0.00787402
-1.53297264,-3.18344000,-4.10617600,2.35297700,0.00790477
-1.45297264,-2.75283000,-4.18307100,1.73782000,0.00790477
-1.37297264,-2.27608300,-4.25996500,1.12266200,0.00790477
-1.29297264,-1.78395700,-4.29072300,0.64591530,0.00790477
-1.21297264,-1.26107300,-4.29072300,0.39985230,0.00787402
-1.13297263,-0.75356790,-4.21382900,0.27682080,0.00784326
-1.05297263,-0.24606300,-4.04466000,0.13841040,0.00784326
-0.97297263,0.24606300,-3.76783900,-0.21530510,0.00784326
-0.89297263,0.75356790,-3.39874500,-0.96887300,0.00784326
-0.81297263,1.26107300,-2.92199800,-2.18380900,0.00787402
-0.73297263,1.78395700,-2.35297700,-3.81397600,0.00790477
-0.65297263,2.27608300,-1.73782000,-5.58255400,0.00790477
-0.57297263,2.75283000,-1.12266200,-7.05893100,0.00790477
-0.49297263,3.18344000,-0.58439960,-7.47416300,0.00790477
-0.41297263,3.53715500,-0.15378940,-6.04392200,0.00787402
-0.33297262,3.78321800,0.09227362,-2.33759800,0.00784326
-0.25297262,3.90625000,0.09227362,3.84473400,0.00784326
-0.17297262,3.90625000,-0.15378940,12.42618000,0.00784326
-0.09297262,3.78321800,-0.67667320,23.14530000,0.00784326
-0.01297262,3.53715500,-1.41486200,35.57148000,0.00787402
0.06702738,3.18344000,-2.35297700,49.19722000,0.00790477
0.14702738,2.75283000,-3.41412400,63.57652000,0.00790477
0.22702738,2.27608300,-4.49065000,78.44795000,0.00790477
0.30702738,1.73782000,-5.53641700,93.71924000,0.00790477
0.38702739,1.12266200,-6.44377400,109.52880000,0.00787402
0.46702739,0.53826270,-7.18196300,126.10730000,0.00784326
0.54702739,0.12303150,-7.67408900,143.71620000,0.00784326
0.62702739,-0.03075787,-7.95091000,162.55540000,0.00784326
0.70702739,0.18454720,-7.98166800,182.65560000,0.00784326
0.78702739,0.81508360,-7.81250000,203.80170000,0.00787402
0.86702739,1.79933500,-7.47416300,225.50130000,0.00790477
0.94702739,2.93737700,-7.01279500,246.90880000,0.00790477
1.02702739,3.93700800,-6.47453200,266.90150000,0.00790477
1.10702739,4.27534400,-5.89013200,284.20270000,0.00787402
1.18702740,3.44488200,-5.30573300,297.47480000,0.00784326
1.26702740,1.33796700,-4.73671200,305.53330000,0.00781250
1.34702740,-1.93774600,-4.19845000,307.45570000,0.00781250
1.42702740,-6.09005900,-3.66018700,302.74970000,0.00787402
1.50702740,-10.79601000,-3.12192400,291.40010000,0.00802781
1.58702740,-15.71727000,-2.56828200,273.89890000,0.00824311
1.66702740,-20.70005000,-1.99926200,251.24570000,0.00855069
1.74702740,-25.83661000,-1.43024100,224.77850000,0.00885827
1.82702740,-31.52682000,-0.89197830,196.08140000,0.00913509
1.90702741,-38.69341000,-0.47674700,166.73840000,0.00916585
1.98702741,-48.36675000,-0.26144190,138.30280000,0.00885827
2.06702741,-61.06976000,-0.16916830,112.02020000,0.00836614
2.14702741,-77.06384000,-0.09227362,88.76722000,0.00793553
2.22702741,-96.27214000,0.13841040,69.03605000,0.00790477
2.30702741,-118.27940000,0.66129420,52.85740000,0.00848917
2.38702741,-142.43970000,1.52251500,39.92372000,0.00987328
2.46702741,-167.95340000,2.67593500,29.68135000,0.01190330
2.54702741,-194.06680000,3.93700800,21.42286000,0.01421014
2.62702742,-220.16490000,4.93663800,14.37930000,0.01608637
2.70702742,-246.07840000,5.01353300,7.93553100,0.01627092
2.78702742,-271.77660000,3.53715500,1.79933500,0.01356422
2.86702742,-297.01340000,0.27682080,-4.02928100,0.00747416
2.94702742,-321.52740000,-4.73671200,-9.36577200,-0.00196850
3.02702742,-344.98030000,-11.28814000,-13.93332000,-0.01439468
3.10702742,-367.09520000,-19.00837000,-17.39358000,-0.02921998
3.18702742,-387.54920000,-27.48216000,-19.53125000,-0.04564469
3.26702742,-406.06540000,-36.41732000,-20.28482000,-0.06311516
3.34702742,-422.49010000,-45.73695000,-19.80807000,-0.08135457
3.42702743,-436.73100000,-55.64099000,-18.51624000,-0.10060900
3.50702743,-449.03420000,-66.86761000,-16.94759000,-0.12195500
3.58702743,-459.59950000,-80.24728000,-15.33280000,-0.14662280
3.66702743,-468.48850000,-96.25676000,-13.81028000,-0.17550440
3.74702743,-475.63970000,-115.06520000,-12.42618000,-0.20899980
3.82702743,-480.93010000,-136.62650000,-11.11897000,-0.24713950
3.90702743,-484.19040000,-160.54070000,-9.82714000,-0.28949310
3.98702743,-485.25160000,-186.23890000,-8.42765700,-0.33507630
4.06702743,-483.95970000,-212.93680000,-6.87438400,-0.38259720
4.14702744,-480.29960000,-239.88060000,-5.13656500,-0.43048720
4.22702744,-474.31710000,-266.37860000,-3.30647100,-0.47720840
4.30702744,-466.25860000,-292.10750000,-1.47637800,-0.52149980
4.38702744,-456.56990000,-316.86760000,0.27682080,-0.56234620
4.46702744,-445.60470000,-340.35120000,1.87623000,-0.59873280
4.54702744,-433.73210000,-362.29700000,3.29109200,-0.62982900
4.62702744,-421.19830000,-382.48950000,4.49065000,-0.65523500
4.70702744,-408.14160000,-400.69820000,5.45952300,-0.67470470
4.78702744,-394.57740000,-416.76920000,6.19771100,-0.68836120
4.86702745,-380.44410000,-430.53330000,6.75135300,-0.69641980
4.94702745,-365.60350000,-441.85220000,7.15120500,-0.69934180
5.02702745,-349.79390000,-450.64900000,7.41264700,-0.69758860
5.10702745,-332.87710000,-456.93900000,7.61257400,-0.69171380
5.18702745,-315.16050000,-460.76830000,7.75098400,-0.68211730
5.26702745,-297.12100000,-462.04470000,7.84325700,-0.66907600
5.34702745,-279.31220000,-460.64530000,7.85863600,-0.65271280
5.42702745,-262.22620000,-456.49300000,7.79712100,-0.63299700
5.50702745,-246.26290000,-449.49550000,7.62795300,-0.60992870
5.58702745,-231.59140000,-439.68380000,7.35113100,-0.58359990
5.66702746,-218.13480000,-427.19610000,6.95127900,-0.55410310
5.74702746,-205.61640000,-412.29390000,6.47453200,-0.52189960
5.82702746,-193.34400000,-395.33090000,5.92089000,-0.48745080
5.90702746,-180.64100000,-376.86080000,5.38262700,-0.45146410
5.98702746,-167.43050000,-357.56020000,4.87512300,-0.41507750
6.06702746,-153.80470000,-338.10590000,4.42913300,-0.37939840
6.14702746,-140.11750000,-319.08220000,4.06003900,-0.34550320
6.22702746,-126.73780000,-300.90430000,3.79859700,-0.31419170
6.30702746,-114.09630000,-283.77210000,3.61405000,-0.28589440
6.38702747,-102.45450000,-267.70110000,3.50639700,-0.26070370
6.46702747,-91.91990000,-252.49140000,3.42950300,-0.23828130
6.54702747,-82.41572000,-237.85060000,3.41412400,-0.21807330
6.62702747,-73.46518000,-223.25600000,3.41412400,-0.19894190
6.70702747,-64.65305000,-208.33840000,3.44488200,-0.18008740
6.78702747,-55.90243000,-193.22090000,3.50639700,-0.16135580
6.86702747,-47.32098000,-178.19570000,3.62942900,-0.14305490
6.94702747,-39.15477000,-163.75490000,3.79859700,-0.12573820
7.02702747,-31.64985000,-150.35990000,4.06003900,-0.11011320
7.10702748,-25.05229000,-138.37970000,4.38299700,-0.09670275
7.18702748,-19.51587000,-128.02960000,4.76747000,-0.08593750
7.26702748,-15.05598000,-119.27900000,5.21345900,-0.07772515
7.34702748,-11.61110000,-111.85100000,5.69020700,-0.07178888
7.42702748,-8.81213000,-105.08430000,6.16695300,-0.06714444
7.50702748,-6.33612200,-98.36368000,6.61294300,-0.06280757
7.58702748,-4.10617600,-91.50467000,7.02817400,-0.05840920
7.66702748,-2.15305100,-84.58415000,7.39726800,-0.05388780
7.74702748,-0.59977850,-77.78666000,7.70484700,-0.04930487
7.82702748,0.44598910,-71.41978000,7.96628900,-0.04490650
7.90702749,0.86122040,-65.76033000,8.19697300,-0.04103100
7.98702749,0.55364170,-60.99286000,8.39689900,-0.03783219
8.06702749,-0.43061020,-57.19426000,8.56606700,-0.03552534
8.14702749,-1.99926200,-54.24151000,8.68909800,-0.03404897
8.22702749,-3.90625000,-51.71936000,8.75061400,-0.03309547
8.30702749,-5.89013200,-49.16646000,8.75061400,-0.03232653
8.38702749,-7.81250000,-46.45977000,8.64296200,-0.03174213
8.46702749,-9.56569900,-43.58390000,8.42765700,-0.03137303
8.54702749,-11.08821000,-40.64653000,8.07394100,-0.03128076
8.62702750,-12.38004000,-37.84756000,7.56643700,-0.03158834
8.70702750,-13.45657000,-35.34079000,6.92052100,-0.03241880
8.78702750,-14.34855000,-33.28002000,6.10543700,-0.03377214
8.86702750,-15.10212000,-31.68061000,5.18270100,-0.03561762
8.94702750,-15.77879000,-30.46567000,4.19845000,-0.03783219
9.02702750,-16.39395000,-29.35839000,3.16806100,-0.04013903
9.10702750,-16.99372000,-28.05118000,2.19918800,-0.04229208
9.18702750,-17.63964000,-26.31336000,1.32258800,-0.04416831
9.26702750,-18.36245000,-24.05266000,0.63053640,-0.04564469
9.34702751,-19.17753000,-21.22293000,0.15378940,-0.04669045
9.42702751,-20.06951000,-17.88570000,-0.09227362,-0.04733637
9.50702751,-21.02301000,-14.10248000,-0.07689468,-0.04758243
9.58702751,-21.99188000,-10.04245000,0.15378940,-0.04752092
9.66702751,-22.94537000,-5.82861700,0.58439960,-0.04715182
9.74702751,-23.85273000,-1.56865100,1.12266200,-0.04659818
9.82702751,-24.66781000,2.66055600,1.73782000,-0.04576772
9.90702751,-25.39062000,6.79749000,2.35297700,-0.04469119
9.98702751,-26.03654000,10.79601000,2.90661900,-0.04339936
10.06702751,-26.62094000,14.54847000,3.38336600,-0.04186147
10.14702752,-27.17458000,18.00873000,3.76783900,-0.04013903
10.22702752,-27.72822000,21.13066000,4.06003900,-0.03826280
10.30702752,-28.29724000,23.86811000,4.24458600,-0.03623278
10.38702752,-28.88164000,26.25184000,4.38299700,-0.03407972
10.46702752,-29.43528000,28.26648000,4.45989200,-0.03180364
10.54702752,-29.92741000,29.91203000,4.49065000,-0.02943528
10.62702752,-30.26575000,31.20386000,4.49065000,-0.02697466
10.70702752,-30.34264000,32.12659000,4.45989200,-0.02445251
10.78702752,-30.06582000,32.58797000,4.36761800,-0.02186885
10.86702753,-29.35839000,32.54183000,4.24458600,-0.01931594
10.94702753,-28.20497000,31.92667000,4.04466000,-0.01685531
11.02702753,-26.60556000,30.68098000,3.78321800,-0.01457923
11.10702753,-24.57554000,28.80475000,3.42950300,-0.01248770
11.18702753,-22.20718000,26.35950000,2.99889300,-0.01061147
11.26702753,-19.54663000,23.40674000,2.50676700,-0.00898130
11.34702753,-16.68615000,20.05413000,1.98388300,-0.00750492
11.42702753,-13.68725000,16.44008000,1.43024100,-0.00615158
11.50702753,-10.59609000,12.70300000,0.92273620,-0.00476747
11.58702753,-7.48954200,8.93516300,0.49212600,-0.00338337
11.66702754,-4.39837600,5.24421700,0.18454720,-0.00199926
