Time,Channel A,Channel B,Channel C,Channel D
(ns),(mV),(mV),(mV),(V)

-15.62352983,3.76783900,-4.02928100,0.03075787,0.00784326
-15.54352982,3.26033400,-4.19845000,0.23068400,0.00784326
-15.46352982,2.52214600,-4.27534400,0.58439960,0.00787402
-15.38352982,1.58403000,-4.29072300,1.09190400,0.00787402
-15.30352982,0.53826270,-4.25996500,1.67630400,0.00790477
-15.22352982,-0.53826270,-4.18307100,2.27608300,0.00790477
-15.14352982,-1.59940900,-4.10617600,2.86048200,0.00790477
-15.06352982,-2.52214600,-4.02928100,3.35260800,0.00787402
-14.98352982,-3.26033400,-3.96776600,3.70632400,0.00784326
-14.90352982,-3.76783900,-3.93700800,3.89087100,0.00784326
-14.82352981,-3.99852300,-3.92162900,3.89087100,0.00784326
-14.74352981,-3.96776600,-3.92162900,3.70632400,0.00784326
-14.66352981,-3.69094500,-3.93700800,3.35260800,0.00787402
-14.58352981,-3.19881900,-3.93700800,2.86048200,0.00790477
-14.50352981,-2.58366100,-3.95238700,2.27608300,0.00790477
-14.42352981,-1.90698800,-3.95238700,1.67630400,0.00790477
-14.34352981,-1.24569400,-3.95238700,1.09190400,0.00790477
-14.26352981,-0.67667320,-3.93700800,0.58439960,0.00787402
-14.18352981,-0.26144190,-3.93700800,0.21530510,0.00784326
-14.10352980,-0.03075787,-3.92162900,0.03075787,0.00784326
-14.02352980,-0.01537894,-3.90625000,0.03075787,0.00784326
-13.94352980,-0.21530510,-3.89087100,0.21530510,0.00784326
-13.86352980,-0.58439960,-3.84473400,0.58439960,0.00787402
-13.78352980,-1.07652500,-3.78321800,1.09190400,0.00790477
-13.70352980,-1.67630400,-3.72170300,1.67630400,0.00790477
-13.62352980,-2.27608300,-3.64480800,2.27608300,0.00790477
-13.54352980,-2.86048200,-3.59867100,2.86048200,0.00790477
-13.46352980,-3.35260800,-3.59867100,3.35260800,0.00787402
-13.38352980,-3.70632400,-3.66018700,3.70632400,0.00784326
-13.30352979,-3.89087100,-3.81397600,3.89087100,0.00784326
-13.22352979,-3.90625000,-4.06003900,3.89087100,0.00784326
-13.14352979,-3.75246000,-4.41375400,3.70632400,0.00784326
-13.06352979,-3.44488200,-4.85974400,3.35260800,0.00787402
-12.98352979,-3.02965000,-5.38262700,2.86048200,0.00790477
-12.90352979,-2.52214600,-5.92089000,2.27608300,0.00790477
-12.82352979,-1.96850400,-6.47453200,1.67630400,0.00790477
-12.74352979,-1.43024100,-6.96665800,1.09190400,0.00790477
-12.66352979,-0.93811510,-7.38188900,0.58439960,0.00787402
-12.58352978,-0.49212600,-7.67408900,0.23068400,0.00784326
-12.50352978,-0.13841040,-7.82787800,0.03075787,0.00784326
-12.42352978,0.12303150,-7.82787800,0.01537894,0.00784326
-12.34352978,0.30757870,-7.67408900,0.16916830,0.00784326
-12.26352978,0.43061020,-7.38188900,0.49212600,0.00787402
-12.18352978,0.50750490,-6.96665800,0.92273620,0.00790477
-12.10352978,0.53826270,-6.47453200,1.43024100,0.00790477
-12.02352978,0.53826270,-5.92089000,1.98388300,0.00790477
-11.94352978,0.50750490,-5.38262700,2.50676700,0.00790477
-11.86352977,0.43061020,-4.85974400,3.01427100,0.00787402
-11.78352977,0.30757870,-4.41375400,3.44488200,0.00784326
-11.70352977,0.12303150,-4.06003900,3.78321800,0.00784326
-11.62352977,-0.13841040,-3.81397600,4.02928100,0.00784326
-11.54352977,-0.49212600,-3.66018700,4.19845000,0.00784326
-11.46352977,-0.93811510,-3.59867100,4.27534400,0.00787402
-11.38352977,-1.43024100,-3.59867100,4.29072300,0.00790477
-11.30352977,-1.96850400,-3.64480800,4.25996500,0.00790477
-11.22352977,-2.52214600,-3.72170300,4.18307100,0.00790477
-11.14352977,-3.01427100,-3.78321800,4.10617600,0.00790477
-11.06352976,-3.44488200,-3.82935500,4.02928100,0.00787402
-10.98352976,-3.73708200,-3.87549200,3.96776600,0.00784326
-10.90352976,-3.90625000,-3.90625000,3.92162900,0.00784326
-10.82352976,-3.90625000,-3.93700800,3.92162900,0.00784326
-10.74352976,-3.73708200,-3.98314500,3.96776600,0.00784326
-10.66352976,-3.44488200,-4.04466000,4.02928100,0.00787402
-10.58352976,-3.01427100,-4.10617600,4.10617600,0.00790477
-10.50352976,-2.52214600,-4.18307100,4.18307100,0.00790477
-10.42352976,-1.96850400,-4.25996500,4.25996500,0.00790477
-10.34352975,-1.43024100,-4.29072300,4.29072300,0.00790477
-10.26352975,-0.93811510,-4.27534400,4.27534400,0.00787402
-10.18352975,-0.49212600,-4.18307100,4.18307100,0.00784326
-10.10352975,-0.13841040,-4.02928100,4.02928100,0.00784326
-10.02352975,0.12303150,-3.79859700,3.79859700,0.00784326
-9.94352975,0.30757870,-3.49101900,3.49101900,0.00784326
-9.86352975,0.43061020,-3.10654500,3.10654500,0.00787402
-9.78352975,0.50750490,-2.67593500,2.67593500,0.00790477
-9.70352975,0.53826270,-2.21456700,2.21456700,0.00790477
-9.62352974,0.53826270,-1.73782000,1.73782000,0.00790477
-9.54352974,0.50750490,-1.26107300,1.27645200,0.00787402
-9.46352974,0.43061020,-0.83046260,0.83046260,0.00787402
-9.38352974,0.30757870,-0.44598910,0.46136810,0.00784326
-9.30352974,0.12303150,-0.12303150,0.13841040,0.00784326
-9.22352974,-0.13841040,0.10765260,-0.12303150,0.00787402
-9.14352974,-0.49212600,0.26144190,-0.30757870,0.00793553
-9.06352974,-0.93811510,0.33833660,-0.43061020,0.00805856
-8.98352974,-1.43024100,0.33833660,-0.50750490,0.00821235
-8.90352974,-1.96850400,0.30757870,-0.53826270,0.00836614
-8.82352973,-2.52214600,0.23068400,-0.53826270,0.00851993
-8.74352973,-3.01427100,0.15378940,-0.50750490,0.00858145
-8.66352973,-3.44488200,0.09227362,-0.43061020,0.00855069
-8.58352973,-3.73708200,0.03075787,-0.30757870,0.00839690
-8.50352973,-3.90625000,0.00000000,-0.12303150,0.00805856
-8.42352973,-3.90625000,0.00000000,0.13841040,0.00756644
-8.34352973,-3.73708200,0.03075787,0.46136810,0.00688976
-8.26352973,-3.44488200,0.09227362,0.83046260,0.00602854
-8.18352973,-3.01427100,0.15378940,1.27645200,0.00501353
-8.10352972,-2.52214600,0.23068400,1.73782000,0.00396777
-8.02352972,-1.96850400,0.30757870,2.21456700,0.00286048
-7.94352972,-1.43024100,0.33833660,2.67593500,0.00184547
-7.86352972,-0.92273620,0.33833660,3.10654500,0.00098425
-7.78352972,-0.49212600,0.26144190,3.49101900,0.00036909
-7.70352972,-0.13841040,0.10765260,3.79859700,0.00003076
-7.62352972,0.10765260,-0.12303150,4.02928100,0.00003076
-7.54352972,0.27682080,-0.44598910,4.18307100,0.00036909
-7.46352972,0.33833660,-0.83046260,4.27534400,0.00098425
-7.38352972,0.35371550,-1.26107300,4.29072300,0.00184547
-7.30352971,0.30757870,-1.73782000,4.25996500,0.00286048
-7.22352971,0.23068400,-2.21456700,4.18307100,0.00396777
-7.14352971,0.16916830,-2.67593500,4.10617600,0.00501353
-7.06352971,0.09227362,-3.10654500,4.04466000,0.00602854
-6.98352971,0.04613681,-3.49101900,3.98314500,0.00688976
-6.90352971,0.01537894,-3.79859700,3.93700800,0.00756644
-6.82352971,0.00000000,-4.02928100,3.90625000,0.00805856
-6.74352971,-0.01537894,-4.18307100,3.87549200,0.00839690
-6.66352971,0.00000000,-4.27534400,3.82935500,0.00855069
-6.58352970,0.00000000,-4.29072300,3.78321800,0.00858145
-6.50352970,0.00000000,-4.25996500,3.72170300,0.00851993
-6.42352970,0.00000000,-4.18307100,3.64480800,0.00836614
-6.34352970,0.00000000,-4.10617600,3.59867100,0.00821235
-6.26352970,0.00000000,-4.02928100,3.59867100,0.00805856
-6.18352970,0.00000000,-3.96776600,3.66018700,0.00793553
-6.10352970,0.00000000,-3.93700800,3.81397600,0.00784326
-6.02352970,0.00000000,-3.92162900,4.06003900,0.00784326
-5.94352970,0.00000000,-3.92162900,4.41375400,0.00793553
-5.86352969,0.00000000,-3.93700800,4.85974400,0.00805856
-5.78352969,0.00000000,-3.93700800,5.38262700,0.00821235
-5.70352969,0.00000000,-3.95238700,5.92089000,0.00836614
-5.62352969,0.00000000,-3.95238700,6.47453200,0.00851993
-5.54352969,0.00000000,-3.93700800,6.96665800,0.00858145
-5.46352969,0.00000000,-3.93700800,7.38188900,0.00855069
-5.38352969,0.00000000,-3.92162900,7.67408900,0.00836614
-5.30352969,0.00000000,-3.92162900,7.82787800,0.00805856
-5.22352969,0.00000000,-3.93700800,7.82787800,0.00759720
-5.14352969,0.00000000,-3.96776600,7.67408900,0.00698204
-5.06352968,0.00000000,-4.02928100,7.38188900,0.00621309
-4.98352968,0.00000000,-4.10617600,6.96665800,0.00535187
-4.90352968,0.00000000,-4.18307100,6.47453200,0.00442913
-4.82352968,0.00000000,-4.25996500,5.92089000,0.00347564
-4.74352968,0.00000000,-4.29072300,5.38262700,0.00255290
-4.66352968,0.00000000,-4.27534400,4.85974400,0.00166093
-4.58352968,0.00000000,-4.19845000,4.41375400,0.00092274
-4.50352968,0.00000000,-4.02928100,4.06003900,0.00027682
-4.42352968,0.00000000,-3.78321800,3.81397600,-0.00024606
-4.34352967,0.00000000,-3.44488200,3.66018700,-0.00061516
-4.26352967,0.00000000,-3.01427100,3.59867100,-0.00086122
-4.18352967,0.00000000,-2.50676700,3.59867100,-0.00101501
-4.10352967,0.00000000,-1.98388300,3.64480800,-0.00107653
-4.02352967,0.00000000,-1.43024100,3.72170300,-0.00107653
-3.94352967,0.00000000,-0.92273620,3.78321800,-0.00101501
-3.86352967,0.00000000,-0.49212600,3.84473400,-0.00086122
-3.78352967,0.00000000,-0.18454720,3.89087100,-0.00061516
-3.70352967,0.00000000,-0.01537894,3.90625000,-0.00024606
-3.62352966,0.00000000,-0.01537894,3.92162900,0.00027682
-3.54352966,0.00000000,-0.18454720,3.93700800,0.00092274
-3.46352966,0.00000000,-0.49212600,3.93700800,0.00166093
-3.38352966,0.00000000,-0.92273620,3.95238700,0.00255290
-3.30352966,0.00000000,-1.43024100,3.95238700,0.00347564
-3.22352966,0.00000000,-1.98388300,3.95238700,0.00442913
-3.14352966,0.00000000,-2.50676700,3.95238700,0.00535187
-3.06352966,0.00000000,-3.01427100,3.93700800,0.00621309
-2.98352966,0.00000000,-3.44488200,3.92162900,0.00698204
-2.90352966,0.00000000,-3.78321800,3.92162900,0.00759720
-2.82352965,0.00000000,-4.02928100,3.92162900,0.00805856
-2.74352965,0.00000000,-4.19845000,3.92162900,0.00836614
-2.66352965,0.00000000,-4.27534400,3.93700800,0.00855069
-2.58352965,0.00000000,-4.29072300,3.95238700,0.00858145
-2.50352965,0.00000000,-4.25996500,3.95238700,0.00851993
-2.42352965,0.00000000,-4.18307100,3.95238700,0.00836614
-2.34352965,0.00000000,-4.10617600,3.95238700,0.00821235
-2.26352965,0.00000000,-4.02928100,3.93700800,0.00805856
-2.18352965,0.00000000,-3.96776600,3.92162900,0.00793553
-2.10352964,0.00000000,-3.92162900,3.92162900,0.00787402
-2.02352964,0.00000000,-3.92162900,3.92162900,0.00784326
-1.94352964,0.00000000,-3.96776600,3.92162900,0.00784326
-1.86352964,0.00000000,-4.02928100,3.93700800,0.00787402
-1.78352964,0.00000000,-4.10617600,3.95238700,0.00787402
-1.70352964,0.00000000,-4.18307100,3.95238700,0.00790477
-1.62352964,0.00000000,-4.25996500,3.95238700,0.00790477
-1.54352964,0.00000000,-4.29072300,3.98314500,0.00790477
-1.46352964,0.00000000,-4.27534400,4.04466000,0.00787402
-1.38352963,0.00000000,-4.18307100,4.09079700,0.00784326
-1.30352963,0.00000000,-4.02928100,4.02928100,0.00784326
-1.22352963,0.00000000,-3.79859700,3.75246000,0.00784326
-1.14352963,0.00000000,-3.49101900,3.19881900,0.00784326
-1.06352963,0.00000000,-3.10654500,2.32221900,0.00787402
-0.98352963,0.00000000,-2.67593500,1.18417800,0.00790477
-0.90352963,0.00000000,-2.21456700,-0.07689468,0.00790477
-0.82352963,0.00000000,-1.73782000,-1.21493600,0.00790477
-0.74352963,0.00000000,-1.26107300,-1.76857800,0.00790477
-0.66352963,0.00000000,-0.83046260,-1.32258800,0.00787402
-0.58352962,-0.01537894,-0.43061020,0.16916830,0.00784326
-0.50352962,0.00000000,-0.12303150,2.52214600,0.00784326
-0.42352962,0.01537894,0.09227362,5.41338600,0.00784326
-0.34352962,0.04613681,0.21530510,8.50455100,0.00784326
-0.26352962,0.09227362,0.24606300,11.50344000,0.00787402
-0.18352962,0.16916830,0.18454720,14.31779000,0.00790477
-0.10352962,0.23068400,0.06151574,17.16289000,0.00790477
-0.02352962,0.30757870,-0.06151574,20.60777000,0.00790477
0.05647038,0.32295760,-0.18454720,25.59055000,0.00790477
0.13647039,0.26144190,-0.24606300,33.24926000,0.00787402
0.21647039,0.13841040,-0.23068400,44.64505000,0.00784326
0.29647039,0.03075787,-0.10765260,60.66990000,0.00784326
0.37647039,-0.01537894,0.13841040,81.84669000,0.00784326
0.45647039,0.07689468,0.52288380,108.17540000,0.00784326
0.53647039,0.30757870,1.01501000,139.07170000,0.00787402
0.61647039,0.67667320,1.58403000,173.33600000,0.00790477
0.69647039,1.10728300,2.21456700,209.24580000,0.00790477
0.77647039,1.43024100,2.82972400,244.67890000,0.00790477
0.85647039,1.35334600,3.36798700,277.34370000,0.00790477
0.93647040,0.56902060,3.78321800,305.02580000,0.00787402
1.01647040,-0.87659940,3.99852300,325.80280000,0.00784326
1.09647040,-2.82972400,4.01390200,338.33660000,0.00784326
1.17647040,-5.02891200,3.76783900,341.88910000,0.00784326
1.25647040,-7.19734200,3.30647100,336.52190000,0.00784326
1.33647040,-9.10433000,2.61441900,322.95760000,0.00787402
1.41647040,-10.74988000,1.75319900,302.54980000,0.00790477
1.49647040,-12.31853000,0.78432570,277.06690000,0.00790477
1.57647040,-14.33317000,-0.24606300,248.43130000,0.00790477
1.65647041,-17.73191000,-1.27645200,218.59620000,0.00784326
1.73647041,-23.51439000,-2.29146100,189.23780000,0.00768947
1.81647041,-32.20350000,-3.16806100,161.69410000,0.00756644
1.89647041,-43.96838000,-3.76783900,136.81100000,0.00765871
1.97647041,-58.70140000,-3.96776600,114.98830000,0.00815084
2.05647041,-75.98732000,-3.67556500,96.16449000,0.00913509
2.13647041,-95.18024000,-2.90661900,79.95509000,0.01073450
2.21647041,-115.64960000,-1.70706200,65.80647000,0.01276452
2.29647041,-136.79560000,-0.29219980,53.10347000,0.01500984
2.37647042,-158.28000000,1.04576800,41.29244000,0.01703986
2.45647042,-180.22580000,1.81471400,30.03506000,0.01802411
2.53647042,-202.92510000,1.52251500,19.28519000,0.01728592
2.61647042,-226.39330000,0.09227362,9.19660400,0.01470226
2.69647042,-250.53820000,-2.38373500,0.12303150,0.01045768
2.77647042,-275.12920000,-5.61331200,-7.56643700,0.00498278
2.85647042,-299.84310000,-9.27349900,-13.54884000,-0.00116880
2.93647042,-324.21870000,-13.07210000,-17.62426000,-0.00753568
3.01647042,-347.77930000,-16.87069000,-19.82345000,-0.01393332
3.09647042,-370.09410000,-20.79232000,-20.39247000,-0.02054626
3.17647043,-390.80950000,-25.25221000,-19.93110000,-0.02811270
3.25647043,-409.89480000,-31.20386000,-19.05450000,-0.03804749
3.33647043,-427.36520000,-39.63152000,-18.07025000,-0.05201156
3.41647043,-443.06710000,-51.10420000,-17.10138000,-0.07098918
3.49647043,-456.78520000,-65.89874000,-16.17864000,-0.09547244
3.57647043,-468.31940000,-83.92285000,-15.16363000,-0.12552290
3.65647043,-477.46980000,-104.79210000,-13.94870000,-0.16052530
3.73647043,-484.02120000,-127.87590000,-12.39542000,-0.19952630
3.81647043,-487.91210000,-152.37450000,-10.41154000,-0.24117250
3.89647044,-489.12710000,-177.58060000,-8.02780400,-0.28411050
3.97647044,-487.77370000,-202.86350000,-5.44414400,-0.32701770
4.05647044,-484.17500000,-228.03890000,-2.87586100,-0.36912520
4.13647044,-478.73090000,-253.07580000,-0.49212600,-0.40981790
4.21647044,-471.74890000,-277.77440000,1.58403000,-0.44857280
4.29647044,-463.49040000,-301.96540000,3.26033400,-0.48489790
4.37647044,-454.07850000,-325.41830000,4.47527100,-0.51851620
4.45647044,-443.57460000,-347.88690000,5.21345900,-0.54918180
4.53647044,-431.94820000,-369.07910000,5.53641700,-0.57667930
4.61647045,-419.13750000,-388.70260000,5.50565900,-0.60085510
4.69647045,-405.06580000,-406.44990000,5.24421700,-0.62146280
4.77647045,-389.59460000,-422.05950000,4.82898600,-0.63819510
4.85647045,-372.77000000,-435.42380000,4.41375400,-0.65092890
4.93647045,-355.00740000,-446.49660000,4.07541800,-0.65932580
5.01647045,-336.79870000,-455.06270000,3.87549200,-0.66304750
5.09647045,-318.71310000,-460.95290000,3.86011300,-0.66166340
5.17647045,-301.22720000,-463.99790000,4.02928100,-0.65489670
5.25647045,-284.69490000,-464.09010000,4.36761800,-0.64268580
5.33647045,-269.23900000,-461.18350000,4.82898600,-0.62518450
5.41647046,-254.78280000,-455.38570000,5.36724900,-0.60273130
5.49647046,-241.01870000,-446.86580000,5.92089000,-0.57612570
5.57647046,-227.30070000,-435.90060000,6.47453200,-0.54616760
5.65647046,-213.07520000,-422.93610000,6.96665800,-0.51396410
5.73647046,-198.31140000,-408.47990000,7.38188900,-0.48074560
5.81647046,-183.20930000,-393.00870000,7.67408900,-0.44765010
5.89647046,-168.16870000,-376.90700000,7.82787800,-0.41553890
5.97647046,-153.65090000,-360.43610000,7.82787800,-0.38508860
6.05647046,-140.07140000,-343.73460000,7.67408900,-0.35654530
6.13647047,-127.70670000,-326.83310000,7.38188900,-0.32990900
6.21647047,-116.60310000,-309.67030000,6.96665800,-0.30487200
6.29647047,-106.63750000,-292.15360000,6.47453200,-0.28097320
6.37647047,-97.21025000,-274.08340000,5.92089000,-0.25750490
6.45647047,-87.79835000,-255.44410000,5.38262700,-0.23400590
6.53647047,-78.27879000,-236.60490000,4.85974400,-0.21069140
6.61647047,-68.74384000,-218.08870000,4.41375400,-0.18802290
6.69647047,-59.40883000,-200.47980000,4.06003900,-0.16676920
6.77647047,-50.56594000,-184.33190000,3.81397600,-0.14763780
6.85647048,-42.50738000,-169.98340000,3.66018700,-0.13118230
6.93647048,-35.40231000,-157.58800000,3.59867100,-0.11771040
7.01647048,-29.35839000,-147.00720000,3.59867100,-0.10712970
7.09647048,-24.28334000,-137.85680000,3.64480800,-0.09894808
7.17647048,-19.85421000,-129.38300000,3.72170300,-0.09208907
7.25647048,-15.71727000,-120.89380000,3.78321800,-0.08556841
7.33647048,-11.85716000,-112.18930000,3.84473400,-0.07904774
7.41647048,-8.30462600,-103.31570000,3.89087100,-0.07240403
7.49647048,-5.22883800,-94.50356000,3.90625000,-0.06588337
7.57647048,-2.78358700,-86.07590000,3.92162900,-0.05979331
7.65647049,-1.12266200,-78.35568000,3.93700800,-0.05453371
7.73647049,-0.29219980,-71.58894000,3.93700800,-0.05035064
7.81647049,-0.30757870,-65.86799000,3.95238700,-0.04736713
7.89647049,-1.03038900,-61.10051000,3.95238700,-0.04549089
7.97647049,-2.16843000,-56.87131000,3.95238700,-0.04426058
8.05647049,-3.47564000,-52.74975000,3.95238700,-0.04315330
8.13647049,-4.81360700,-48.64357000,3.93700800,-0.04204601
8.21647049,-6.09005900,-44.64505000,3.92162900,-0.04087722
8.29647049,-7.27423700,-40.90797000,3.92162900,-0.03973917
8.37647050,-8.39689900,-37.67839000,3.92162900,-0.03875492
8.45647050,-9.48880400,-35.15625000,3.92162900,-0.03804749
8.53647050,-10.59609000,-33.43381000,3.93700800,-0.03770915
8.61647050,-11.73413000,-32.52645000,3.95238700,-0.03777067
8.69647050,-12.94906000,-32.24963000,3.95238700,-0.03817052
8.77647050,-14.17938000,-32.23425000,3.95238700,-0.03872416
8.85647050,-15.39431000,-32.04970000,3.95238700,-0.03915477
8.93647050,-16.60925000,-31.44992000,3.93700800,-0.03943159
9.01647050,-17.82419000,-30.28112000,3.93700800,-0.03949311
9.09647051,-19.02374000,-28.52793000,3.92162900,-0.03937008
9.17647051,-20.19254000,-26.26722000,3.90625000,-0.03906250
9.25647051,-21.29983000,-23.59129000,3.89087100,-0.03863189
9.33647051,-22.34559000,-20.65391000,3.84473400,-0.03810900
9.41647051,-23.29909000,-17.59350000,3.78321800,-0.03758612
9.49647051,-24.14493000,-14.50234000,3.72170300,-0.03700172
9.57647051,-24.89850000,-11.36503000,3.64480800,-0.03632505
9.65647051,-25.55979000,-8.13545700,3.59867100,-0.03546383
9.73647051,-26.14419000,-4.79822800,3.59867100,-0.03447958
9.81647051,-26.68245000,-1.36872500,3.66018700,-0.03334153
9.89647052,-27.20534000,2.13767200,3.81397600,-0.03204970
9.97647052,-27.71284000,5.72096400,4.04466000,-0.03066560
10.05647052,-28.20497000,9.30425600,4.36761800,-0.02921998
10.13647052,-28.68172000,12.88755000,4.76747000,-0.02768209
10.21647052,-29.11233000,16.39395000,5.21345900,-0.02611344
10.29647052,-29.45066000,19.73118000,5.69020700,-0.02454478
10.37647052,-29.66597000,22.86848000,6.16695300,-0.02288386
10.45647052,-29.65059000,25.68282000,6.62832200,-0.02122293
10.53647052,-29.38915000,28.06656000,7.04355200,-0.01950049
10.61647053,-28.82013000,29.89665000,7.41264700,-0.01787033
10.69647053,-27.98966000,31.06545000,7.72022600,-0.01636319
10.77647053,-26.86700000,31.51144000,7.95091000,-0.01507136
10.85647053,-25.51365000,31.25000000,8.12007800,-0.01405635
10.93647053,-23.96038000,30.29650000,8.21235200,-0.01331816
11.01647053,-22.23794000,28.75861000,8.22773100,-0.01285679
11.09647053,-20.39247000,26.71321000,8.21235200,-0.01254921
11.17647053,-18.42397000,24.32948000,8.13545700,-0.01227239
11.25647053,-16.30167000,21.71506000,8.04318300,-0.01184178
11.33647053,-14.01021000,18.94685000,7.95091000,-0.01116511
