Time,Channel A,Channel B,Channel C,Channel D
(ns),(mV),(mV),(mV),(V)

-15.21176483,3.90625000,0.01537894,3.92162900,0.00805856
-15.13176482,3.73708200,0.09227362,3.92162900,0.00839690
-15.05176482,3.44488200,0.18454720,3.93700800,0.00855069
-14.97176482,3.01427100,0.32295760,3.93700800,0.00858145
-14.89176482,2.52214600,0.47674700,3.95238700,0.00851993
-14.81176482,1.96850400,0.61515740,3.95238700,0.00836614
-14.73176482,1.43024100,0.69205210,3.95238700,0.00821235
-14.65176482,0.92273620,0.67667320,3.93700800,0.00805856
-14.57176482,0.47674700,0.52288380,3.92162900,0.00793553
-14.49176482,0.13841040,0.21530510,3.92162900,0.00784326
-14.41176481,-0.10765260,-0.26144190,3.92162900,0.00784326
-14.33176481,-0.23068400,-0.89197830,3.92162900,0.00793553
-14.25176481,-0.24606300,-1.66092500,3.93700800,0.00805856
-14.17176481,-0.18454720,-2.53752400,3.95238700,0.00821235
-14.09176481,-0.06151574,-3.47564000,3.95238700,0.00836614
-14.01176481,0.06151574,-4.42913300,3.95238700,0.00851993
-13.93176481,0.18454720,-5.35187000,3.95238700,0.00858145
-13.85176481,0.24606300,-6.19771100,3.93700800,0.00855069
-13.77176481,0.23068400,-6.95127900,3.92162900,0.00839690
-13.69176480,0.10765260,-7.58181600,3.92162900,0.00805856
-13.61176480,-0.13841040,-8.07394100,3.92162900,0.00756644
-13.53176480,-0.47674700,-8.45841400,3.92162900,0.00688976
-13.45176480,-0.92273620,-8.73523500,3.93700800,0.00602854
-13.37176480,-1.43024100,-8.90440500,3.95238700,0.00501353
-13.29176480,-1.96850400,-8.98129900,3.95238700,0.00396777
-13.21176480,-2.52214600,-8.98129900,3.95238700,0.00286048
-13.13176480,-3.01427100,-8.90440500,3.95238700,0.00184547
-13.05176480,-3.44488200,-8.73523500,3.93700800,0.00098425
-12.97176480,-3.73708200,-8.47379300,3.92162900,0.00033834
-12.89176479,-3.90625000,-8.08932000,3.92162900,0.00003076
-12.81176479,-3.90625000,-7.56643700,3.92162900,0.00006152
-12.73176479,-3.73708200,-6.90514200,3.92162900,0.00046137
-12.65176479,-3.44488200,-6.10543700,3.93700800,0.00116880
-12.57176479,-3.01427100,-5.18270100,3.95238700,0.00218381
-12.49176479,-2.52214600,-4.19845000,3.95238700,0.00335261
-12.41176479,-1.96850400,-3.16806100,3.95238700,0.00455217
-12.33176479,-1.43024100,-2.18380900,3.93700800,0.00572097
-12.25176479,-0.92273620,-1.32258800,3.93700800,0.00670522
-12.17176478,-0.49212600,-0.61515740,3.92162900,0.00741265
-12.09176478,-0.13841040,-0.13841040,3.92162900,0.00778174
-12.01176478,0.10765260,0.07689468,3.93700800,0.00778174
-11.93176478,0.27682080,0.03075787,3.96776600,0.00741265
-11.85176478,0.33833660,-0.26144190,4.02928100,0.00670522
-11.77176478,0.35371550,-0.73818890,4.10617600,0.00572097
-11.69176478,0.30757870,-1.36872500,4.18307100,0.00455217
-11.61176478,0.23068400,-2.04539800,4.25996500,0.00335261
-11.53176478,0.16916830,-2.69131400,4.29072300,0.00218381
-11.45176477,0.09227362,-3.26033400,4.27534400,0.00116880
-11.37176477,0.04613681,-3.66018700,4.18307100,0.00046137
-11.29176477,0.01537894,-3.89087100,4.02928100,0.00006152
-11.21176477,0.00000000,-3.90625000,3.79859700,0.00003076
-11.13176477,-0.01537894,-3.72170300,3.49101900,0.00033834
-11.05176477,0.00000000,-3.35260800,3.10654500,0.00098425
-10.97176477,0.00000000,-2.86048200,2.67593500,0.00184547
-10.89176477,0.00000000,-2.27608300,2.21456700,0.00286048
-10.81176477,0.00000000,-1.67630400,1.73782000,0.00396777
-10.73176477,0.00000000,-1.09190400,1.27645200,0.00501353
-10.65176476,0.00000000,-0.58439960,0.83046260,0.00602854
-10.57176476,0.00000000,-0.23068400,0.46136810,0.00688976
-10.49176476,0.00000000,-0.03075787,0.13841040,0.00756644
-10.41176476,0.00000000,-0.01537894,-0.12303150,0.00805856
-10.33176476,0.00000000,-0.16916830,-0.30757870,0.00839690
-10.25176476,0.00000000,-0.49212600,-0.43061020,0.00855069
-10.17176476,0.00000000,-0.92273620,-0.50750490,0.00858145
-10.09176476,0.00000000,-1.43024100,-0.53826270,0.00851993
-10.01176476,0.00000000,-1.98388300,-0.53826270,0.00836614
-9.93176475,0.00000000,-2.50676700,-0.50750490,0.00821235
-9.85176475,0.00000000,-3.01427100,-0.43061020,0.00805856
-9.77176475,0.00000000,-3.44488200,-0.30757870,0.00793553
-9.69176475,0.00000000,-3.78321800,-0.12303150,0.00787402
-9.61176475,0.00000000,-4.02928100,0.13841040,0.00784326
-9.53176475,0.00000000,-4.19845000,0.46136810,0.00784326
-9.45176475,0.00000000,-4.27534400,0.83046260,0.00787402
-9.37176475,0.00000000,-4.29072300,1.27645200,0.00787402
-9.29176475,0.00000000,-4.25996500,1.73782000,0.00790477
-9.21176474,0.00000000,-4.18307100,2.21456700,0.00790477
-9.13176474,0.00000000,-4.10617600,2.67593500,0.00790477
-9.05176474,0.00000000,-4.02928100,3.10654500,0.00787402
-8.97176474,0.00000000,-3.96776600,3.49101900,0.00784326
-8.89176474,0.00000000,-3.93700800,3.79859700,0.00784326
-8.81176474,0.00000000,-3.92162900,4.02928100,0.00784326
-8.73176474,0.00000000,-3.92162900,4.18307100,0.00784326
-8.65176474,0.00000000,-3.93700800,4.27534400,0.00787402
-8.57176474,0.00000000,-3.93700800,4.29072300,0.00790477
-8.49176474,0.00000000,-3.95238700,4.25996500,0.00790477
-8.41176473,0.00000000,-3.95238700,4.18307100,0.00790477
-8.33176473,0.00000000,-3.95238700,4.10617600,0.00790477
-8.25176473,0.00000000,-3.93700800,4.02928100,0.00787402
-8.17176473,0.00000000,-3.92162900,3.96776600,0.00784326
-8.09176473,0.00000000,-3.92162900,3.93700800,0.00784326
-8.01176473,0.00000000,-3.92162900,3.92162900,0.00784326
-7.93176473,0.00000000,-3.92162900,3.92162900,0.00784326
-7.85176473,0.00000000,-3.93700800,3.93700800,0.00787402
-7.77176473,0.00000000,-3.95238700,3.93700800,0.00790477
-7.69176472,0.00000000,-3.95238700,3.95238700,0.00790477
-7.61176472,0.00000000,-3.95238700,3.95238700,0.00790477
-7.53176472,0.00000000,-3.93700800,3.95238700,0.00790477
-7.45176472,0.00000000,-3.92162900,3.93700800,0.00787402
-7.37176472,0.00000000,-3.90625000,3.92162900,0.00784326
-7.29176472,0.00000000,-3.90625000,3.92162900,0.00784326
-7.21176472,0.00000000,-3.93700800,3.92162900,0.00784326
-7.13176472,0.00000000,-4.01390200,3.92162900,0.00784326
-7.05176472,0.00000000,-4.12155500,3.93700800,0.00787402
-6.97176472,0.00000000,-4.27534400,3.95238700,0.00790477
-6.89176471,0.00000000,-4.42913300,3.95238700,0.00790477
-6.81176471,0.00000000,-4.56754400,3.95238700,0.00790477
-6.73176471,0.00000000,-4.64443900,3.95238700,0.00790477
-6.65176471,0.00000000,-4.61368100,3.93700800,0.00787402
-6.57176471,0.00000000,-4.47527100,3.92162900,0.00784326
-6.49176471,0.00000000,-4.15231300,3.92162900,0.00784326
-6.41176471,0.00000000,-3.64480800,3.92162900,0.00784326
-6.33176471,0.00000000,-2.95275600,3.92162900,0.00784326
-6.25176471,0.00000000,-2.09153500,3.93700800,0.00787402
-6.17176470,0.00000000,-1.07652500,3.95238700,0.00790477
-6.09176470,0.00000000,0.00000000,3.95238700,0.00790477
-6.01176470,0.00000000,1.09190400,3.95238700,0.00790477
-5.93176470,0.00000000,2.09153500,3.95238700,0.00790477
-5.85176470,0.00000000,2.93737700,3.93700800,0.00787402
-5.77176470,0.00000000,3.55253400,3.92162900,0.00784326
-5.69176470,0.00000000,3.87549200,3.92162900,0.00784326
-5.61176470,0.00000000,3.89087100,3.92162900,0.00784326
-5.53176470,0.00000000,3.59867100,3.92162900,0.00784326
-5.45176469,0.00000000,3.04502900,3.93700800,0.00787402
-5.37176469,0.00000000,2.26070400,3.95238700,0.00790477
-5.29176469,0.00000000,1.32258800,3.95238700,0.00790477
-5.21176469,0.00000000,0.30757870,3.95238700,0.00790477
-5.13176469,0.00000000,-0.73818890,3.95238700,0.00787402
-5.05176469,0.00000000,-1.73782000,3.93700800,0.00787402
-4.97176469,0.00000000,-2.67593500,3.92162900,0.00784326
-4.89176469,0.00000000,-3.52177600,3.92162900,0.00784326
-4.81176469,0.00000000,-4.30610200,3.92162900,0.00787402
-4.73176469,0.00000000,-4.99815400,3.92162900,0.00793553
-4.65176468,0.00000000,-5.64407000,3.93700800,0.00805856
-4.57176468,0.00000000,-6.22846900,3.95238700,0.00821235
-4.49176468,0.00000000,-6.76673200,3.95238700,0.00836614
-4.41176468,0.00000000,-7.24347900,3.95238700,0.00851993
-4.33176468,0.00000000,-7.64333200,3.95238700,0.00858145
-4.25176468,0.00000000,-7.90477300,3.93700800,0.00855069
-4.17176468,0.01537894,-8.02780400,3.92162900,0.00839690
-4.09176468,0.00000000,-7.96628900,3.92162900,0.00805856
-4.01176468,-0.01537894,-7.67408900,3.92162900,0.00756644
-3.93176467,-0.04613681,-7.16658400,3.92162900,0.00688976
-3.85176467,-0.09227362,-6.44377400,3.93700800,0.00602854
-3.77176467,-0.16916830,-5.53641700,3.95238700,0.00501353
-3.69176467,-0.23068400,-4.49065000,3.95238700,0.00396777
-3.61176467,-0.30757870,-3.41412400,3.95238700,0.00286048
-3.53176467,-0.35371550,-2.35297700,3.95238700,0.00184547
-3.45176467,-0.33833660,-1.41486200,3.93700800,0.00098425
-3.37176467,-0.27682080,-0.67667320,3.92162900,0.00036909
-3.29176467,-0.10765260,-0.15378940,3.92162900,0.00003076
-3.21176466,0.13841040,0.09227362,3.92162900,0.00003076
-3.13176466,0.49212600,0.09227362,3.92162900,0.00036909
-3.05176466,0.92273620,-0.15378940,3.93700800,0.00098425
-2.97176466,1.43024100,-0.58439960,3.95238700,0.00184547
-2.89176466,1.96850400,-1.12266200,3.95238700,0.00286048
-2.81176466,2.52214600,-1.73782000,3.95238700,0.00396777
-2.73176466,3.01427100,-2.35297700,3.95238700,0.00501353
-2.65176466,3.44488200,-2.92199800,3.93700800,0.00602854
-2.57176466,3.73708200,-3.39874500,3.92162900,0.00688976
-2.49176466,3.90625000,-3.76783900,3.92162900,0.00756644
-2.41176465,3.90625000,-4.04466000,3.92162900,0.00805856
-2.33176465,3.73708200,-4.21382900,3.92162900,0.00839690
-2.25176465,3.44488200,-4.29072300,3.93700800,0.00855069
-2.17176465,3.01427100,-4.29072300,3.95238700,0.00858145
-2.09176465,2.52214600,-4.25996500,3.95238700,0.00851993
-2.01176465,1.96850400,-4.18307100,3.95238700,0.00836614
-1.93176465,1.43024100,-4.10617600,3.96776600,0.00821235
-1.85176465,0.92273620,-4.02928100,3.98314500,0.00805856
-1.77176465,0.49212600,-3.96776600,3.99852300,0.00793553
-1.69176464,0.13841040,-3.92162900,3.96776600,0.00784326
-1.61176464,-0.10765260,-3.92162900,3.84473400,0.00784326
-1.53176464,-0.27682080,-3.96776600,3.58329200,0.00793553
-1.45176464,-0.33833660,-4.02928100,3.18344000,0.00805856
-1.37176464,-0.35371550,-4.10617600,2.64517700,0.00821235
-1.29176464,-0.30757870,-4.18307100,2.06077700,0.00836614
-1.21176464,-0.23068400,-4.25996500,1.52251500,0.00851993
-1.13176464,-0.16916830,-4.29072300,1.32258800,0.00858145
-1.05176464,-0.10765260,-4.27534400,1.69168300,0.00855069
-0.97176463,-0.04613681,-4.18307100,2.50676700,0.00836614
-0.89176463,-0.01537894,-4.02928100,3.47564000,0.00805856
-0.81176463,0.01537894,-3.79859700,4.27534400,0.00759720
-0.73176463,0.04613681,-3.49101900,4.55216500,0.00698204
-0.65176463,0.10765260,-3.10654500,4.12155500,0.00621309
-0.57176463,0.16916830,-2.67593500,3.06040800,0.00535187
-0.49176463,0.23068400,-2.21456700,1.75319900,0.00442913
-0.41176463,0.30757870,-1.73782000,0.98425190,0.00347564
-0.33176463,0.32295760,-1.26107300,1.84547200,0.00252215
-0.25176463,0.27682080,-0.83046260,5.62869100,0.00166093
-0.17176462,0.18454720,-0.44598910,13.56422000,0.00089198
-0.09176462,0.06151574,-0.12303150,26.63632000,0.00024606
-0.01176462,-0.04613681,0.10765260,45.42937000,-0.00021531
0.06823538,-0.09227362,0.26144190,69.98953000,-0.00052288
0.14823538,-0.07689468,0.33833660,99.70164000,-0.00067667
0.22823538,0.03075787,0.33833660,133.30460000,-0.00067667
0.30823538,0.15378940,0.30757870,168.96840000,-0.00061516
0.38823538,0.21530510,0.23068400,204.46300000,-0.00046137
0.46823538,-0.01537894,0.15378940,237.37390000,-0.00033834
0.54823539,-0.73818890,0.09227362,265.34810000,-0.00018455
0.62823539,-1.87623000,0.03075787,286.41730000,-0.00009227
0.70823539,-3.22957700,0.00000000,299.08950000,-0.00003076
0.78823539,-4.56754400,0.00000000,302.64210000,0.00000000
0.86823539,-5.62869100,0.03075787,297.12100000,0.00003076
0.94823539,-6.25922700,0.09227362,283.29540000,0.00000000
1.02823539,-6.48991100,0.15378940,262.58000000,0.00000000
1.10823539,-6.55142700,0.23068400,236.83560000,0.00000000
1.18823539,-6.99741600,0.30757870,208.15390000,0.00000000
1.26823539,-8.75061400,0.32295760,178.54940000,-0.00003076
1.34823540,-12.77990000,0.24606300,149.86770000,-0.00015379
1.42823540,-19.57738000,0.13841040,123.50820000,-0.00021531
1.50823540,-29.34301000,0.03075787,100.40910000,-0.00012303
1.58823540,-41.93836000,0.00000000,80.93934000,0.00021531
1.66823540,-56.96358000,0.12303150,65.03752000,0.00095349
1.74823540,-73.84965000,0.39985230,52.25763000,0.00209154
1.82823540,-91.98141000,0.84584150,41.89222000,0.00356791
1.90823540,-110.85140000,1.33796700,33.23388000,0.00519808
1.98823540,-130.13660000,1.73782000,25.57517000,0.00670522
2.06823541,-150.06770000,1.69168300,18.43934000,0.00738189
2.14823541,-170.98300000,0.90735720,11.56496000,0.00676673
2.22823541,-192.89800000,-0.63053640,4.96739600,0.00479823
2.30823541,-215.76650000,-2.73745100,-1.13804100,0.00178396
2.38823541,-239.37310000,-5.15194400,-6.47453200,-0.00187623
2.46823541,-263.36430000,-7.59719500,-10.71912000,-0.00562869
2.54823541,-287.29390000,-9.84251900,-13.68725000,-0.00913509
2.62823541,-310.68530000,-11.85716000,-15.28666000,-0.01233391
2.70823541,-333.09240000,-13.82566000,-15.67113000,-0.01550197
2.78823542,-354.14610000,-16.24016000,-15.28666000,-0.01950049
2.86823542,-373.84660000,-20.05413000,-14.56385000,-0.02592889
2.94823542,-392.25510000,-26.25184000,-13.76415000,-0.03647884
3.02823542,-409.20270000,-35.35617000,-12.96444000,-0.05213460
3.10823542,-424.50480000,-47.61319000,-12.18012000,-0.07348056
3.18823542,-437.93060000,-62.93060000,-11.33428000,-0.10048600
3.26823542,-449.24950000,-80.92397000,-10.33464000,-0.13256640
3.34823542,-458.24620000,-100.94730000,-9.10433000,-0.16873770
3.42823542,-464.78220000,-122.33940000,-7.56643700,-0.20773870
3.50823542,-468.79610000,-144.45430000,-5.75172200,-0.24815450
3.58823543,-470.38010000,-166.79990000,-3.78321800,-0.28890870
3.66823543,-469.79570000,-189.39160000,-1.79933500,-0.32932450
3.74823543,-467.39660000,-212.32160000,0.09227362,-0.36903300
3.82823543,-463.45960000,-235.52840000,1.79933500,-0.40763410
3.90823543,-458.13850000,-258.93520000,3.27571300,-0.44485110
3.98823543,-451.54100000,-282.32650000,4.49065000,-0.48040720
4.06823543,-443.68230000,-305.48720000,5.42876500,-0.51408710
4.14823543,-434.50110000,-328.03270000,6.12081600,-0.54561390
4.22823543,-423.93570000,-349.56320000,6.59756400,-0.57461860
4.30823544,-411.92480000,-369.69420000,6.90514200,-0.60060900
4.38823544,-398.36060000,-388.02590000,7.12044700,-0.62309300
4.46823544,-383.33540000,-404.37370000,7.27423700,-0.64154770
4.54823544,-367.24900000,-418.59920000,7.42802600,-0.65548100
4.62823544,-350.57820000,-430.44100000,7.58181600,-0.66427780
4.70823544,-333.81520000,-439.66840000,7.75098400,-0.66744580
4.78823544,-317.43660000,-446.06600000,7.93553100,-0.66464690
4.86823544,-301.73470000,-449.49550000,8.07394100,-0.65575780
4.94823544,-286.81710000,-449.91080000,8.18159400,-0.64099410
5.02823545,-272.59160000,-447.40400000,8.22773100,-0.62081690
5.10823545,-258.81210000,-442.12900000,8.21235200,-0.59605680
5.18823545,-244.89420000,-434.36270000,8.13545700,-0.56757500
5.26823545,-230.34570000,-424.55090000,8.05856200,-0.53657110
5.34823545,-215.18210000,-413.18590000,7.96628900,-0.50418310
5.42823545,-199.63400000,-400.68280000,7.88939400,-0.47148750
5.50823545,-184.11660000,-387.36460000,7.84325700,-0.43931470
5.58823545,-169.07600000,-373.44670000,7.84325700,-0.40821850
5.66823545,-154.94280000,-359.00590000,7.88939400,-0.37847560
5.74823545,-141.94760000,-344.05760000,7.96628900,-0.34999390
5.82823546,-130.16730000,-328.54020000,8.05856200,-0.32261930
5.90823546,-119.43280000,-312.36160000,8.13545700,-0.29595230
5.98823546,-109.20580000,-295.39860000,8.21235200,-0.26950050
6.06823546,-98.91731000,-277.65130000,8.22773100,-0.24295640
6.14823546,-88.49040000,-259.50420000,8.21235200,-0.21672000
6.22823546,-78.00196000,-241.46470000,8.12007800,-0.19137550
6.30823546,-67.72884000,-224.04030000,7.95091000,-0.16778420
6.38823546,-57.96321000,-207.73870000,7.72022600,-0.14671510
6.46823546,-48.99729000,-192.88260000,7.41264700,-0.12872170
6.54823547,-41.04638000,-179.57980000,7.04355200,-0.11401940
6.62823547,-34.18737000,-167.72270000,6.62832200,-0.10251600
6.70823547,-28.34338000,-157.03430000,6.16695300,-0.09362697
6.78823547,-23.16068000,-146.86890000,5.69020700,-0.08624507
6.86823547,-18.27018000,-136.67260000,5.21345900,-0.07926304
6.94823547,-13.65650000,-126.41490000,4.76747000,-0.07225025
7.02823547,-9.36577200,-116.26480000,4.36761800,-0.06520669
7.10823547,-5.58255400,-106.54530000,4.04466000,-0.05825541
7.18823547,-2.46063000,-97.67162000,3.81397600,-0.05176550
7.26823548,-0.16916830,-89.95140000,3.66018700,-0.04613681
7.34823548,1.19955700,-83.58452000,3.59867100,-0.04164616
7.42823548,1.64554600,-78.58636000,3.59867100,-0.03847810
7.50823548,1.32258800,-74.74163000,3.64480800,-0.03650960
7.58823548,0.50750490,-71.45053000,3.72170300,-0.03527928
7.66823548,-0.47674700,-68.14407000,3.78321800,-0.03426427
7.74823548,-1.52251500,-64.62228000,3.84473400,-0.03334153
7.82823548,-2.52214600,-60.82369000,3.89087100,-0.03244956
7.90823548,-3.46026100,-56.88668000,3.90625000,-0.03168061
7.98823548,-4.38299700,-52.98043000,3.92162900,-0.03115773
8.06823549,-5.32111200,-49.33562000,3.93700800,-0.03100394
8.14823549,-6.33612200,-46.12143000,3.93700800,-0.03131152
8.22823549,-7.45878400,-43.41473000,3.95238700,-0.03208046
8.30823549,-8.68909800,-41.16941000,3.95238700,-0.03328002
8.38823549,-9.98092900,-39.12401000,3.95238700,-0.03463336
8.46823549,-11.28814000,-36.94020000,3.95238700,-0.03592520
8.54823549,-12.59535000,-34.52571000,3.93700800,-0.03709400
8.62823549,-13.87180000,-31.84978000,3.92162900,-0.03810900
8.70823549,-15.10212000,-28.94316000,3.92162900,-0.03887795
8.78823550,-16.25554000,-25.95964000,3.92162900,-0.03952387
8.86823550,-17.30130000,-22.97613000,3.92162900,-0.04004675
8.94823550,-18.22404000,-20.13103000,3.93700800,-0.04044661
9.02823550,-19.02374000,-17.48585000,3.95238700,-0.04081570
9.10823550,-19.73118000,-15.02522000,3.95238700,-0.04109252
9.18823550,-20.34633000,-12.64149000,3.95238700,-0.04121555
9.26823550,-20.93073000,-10.16548000,3.95238700,-0.04115403
9.34823550,-21.54589000,-7.52030000,3.93700800,-0.04084646
9.42823550,-22.23794000,-4.65981800,3.92162900,-0.04035433
9.50823551,-23.06841000,-1.59940900,3.92162900,-0.03964690
9.58823551,-24.03728000,1.64554600,3.92162900,-0.03875492
9.66823551,-25.15994000,4.99815400,3.92162900,-0.03773991
9.74823551,-26.40563000,8.39689900,3.93700800,-0.03660187
9.82823551,-27.69746000,11.76489000,3.95238700,-0.03534080
9.90823551,-28.97392000,15.00984000,3.95238700,-0.03398745
9.98823551,-30.14272000,18.07025000,3.95238700,-0.03248031
10.06823551,-31.06545000,20.89997000,3.93700800,-0.03081939
10.14823551,-31.66523000,23.37598000,3.93700800,-0.02894316
10.22823551,-31.88053000,25.40600000,3.92162900,-0.02688238
10.30823552,-31.64985000,26.91314000,3.92162900,-0.02469857
10.38823552,-30.98856000,27.85125000,3.93700800,-0.02236097
10.46823552,-29.91203000,28.22035000,3.96776600,-0.01993110
10.54823552,-28.46641000,28.03580000,4.02928100,-0.01747047
10.62823552,-26.71321000,27.34375000,4.10617600,-0.01500984
10.70823552,-24.71395000,26.23647000,4.18307100,-0.01254921
10.78823552,-22.54552000,24.80622000,4.25996500,-0.01008858
10.86823552,-20.22330000,23.12992000,4.29072300,-0.00765871
10.94823552,-17.80881000,21.22293000,4.27534400,-0.00525960
11.02823553,-15.36356000,19.11602000,4.19845000,-0.00298351
11.10823553,-12.94906000,16.87069000,4.02928100,-0.00092274
11.18823553,-10.61147000,14.47158000,3.78321800,0.00086122
11.26823553,-8.41227800,11.96481000,3.44488200,0.00233760
11.34823553,-6.35150100,9.35039300,3.01427100,0.00344488
11.42823553,-4.41375400,6.65908000,2.50676700,0.00427534
11.50823553,-2.59904000,3.92162900,1.98388300,0.00482899
11.58823553,-0.81508360,1.12266200,1.43024100,0.00522884
11.66823553,0.98425190,-1.72244100,0.92273620,0.00562869
11.74823553,2.84510300,-4.59830200,0.49212600,0.00612082
11.82823554,4.78284900,-7.47416300,0.18454720,0.00670522
