Time,Channel A,Channel B,Channel C,Channel D
(ns),(mV),(mV),(mV),(V)

-15.55999983,3.64480800,-4.02928100,3.93700800,0.00027682
-15.47999982,2.98351400,-4.18307100,4.13693400,0.00098425
-15.39999982,2.16843000,-4.27534400,4.50602900,0.00184547
-15.31999982,1.24569400,-4.29072300,5.02891200,0.00286048
-15.23999982,0.24606300,-4.25996500,5.62869100,0.00393701
-15.15999982,-0.78432570,-4.18307100,6.22846900,0.00504429
-15.07999982,-1.75319900,-4.10617600,6.79749000,0.00605930
-14.99999982,-2.61441900,-4.02928100,7.27423700,0.00688976
-14.91999982,-3.30647100,-3.96776600,7.61257400,0.00750492
-14.83999982,-3.78321800,-3.93700800,7.81250000,0.00781250
-14.75999981,-3.99852300,-3.92162900,7.84325700,0.00778174
-14.67999981,-3.96776600,-3.92162900,7.72022600,0.00741265
-14.59999981,-3.67556500,-3.93700800,7.47416300,0.00670522
-14.51999981,-3.19881900,-3.93700800,7.13582600,0.00572097
-14.43999981,-2.58366100,-3.95238700,6.70521600,0.00455217
-14.35999981,-1.90698800,-3.95238700,6.22846900,0.00335261
-14.27999981,-1.24569400,-3.95238700,5.72096400,0.00218381
-14.19999981,-0.67667320,-3.93700800,5.19808000,0.00116880
-14.11999981,-0.26144190,-3.92162900,4.69057600,0.00046137
-14.03999980,-0.03075787,-3.92162900,4.16769200,0.00006152
-13.95999980,-0.01537894,-3.92162900,3.67556500,0.00003076
-13.87999980,-0.21530510,-3.92162900,3.16806100,0.00033834
-13.79999980,-0.58439960,-3.93700800,2.67593500,0.00098425
-13.71999980,-1.07652500,-3.95238700,2.16843000,0.00184547
-13.63999980,-1.67630400,-3.95238700,1.67630400,0.00286048
-13.55999980,-2.27608300,-3.95238700,1.19955700,0.00396777
-13.47999980,-2.86048200,-3.95238700,0.76894680,0.00501353
-13.39999980,-3.35260800,-3.93700800,0.39985230,0.00602854
-13.31999980,-3.70632400,-3.93700800,0.13841040,0.00688976
-13.23999979,-3.89087100,-3.92162900,0.01537894,0.00756644
-13.15999979,-3.89087100,-3.90625000,0.03075787,0.00805856
-13.07999979,-3.70632400,-3.89087100,0.19992620,0.00839690
-12.99999979,-3.35260800,-3.84473400,0.50750490,0.00855069
-12.91999979,-2.86048200,-3.78321800,0.92273620,0.00858145
-12.83999979,-2.27608300,-3.72170300,1.43024100,0.00851993
-12.75999979,-1.67630400,-3.64480800,1.98388300,0.00836614
-12.67999979,-1.09190400,-3.59867100,2.50676700,0.00821235
-12.59999979,-0.58439960,-3.59867100,3.01427100,0.00805856
-12.51999978,-0.23068400,-3.66018700,3.44488200,0.00793553
-12.43999978,-0.03075787,-3.81397600,3.78321800,0.00787402
-12.35999978,-0.01537894,-4.06003900,4.02928100,0.00784326
-12.27999978,-0.16916830,-4.41375400,4.19845000,0.00784326
-12.19999978,-0.49212600,-4.85974400,4.27534400,0.00787402
-12.11999978,-0.92273620,-5.38262700,4.29072300,0.00787402
-12.03999978,-1.43024100,-5.92089000,4.25996500,0.00790477
-11.95999978,-1.98388300,-6.47453200,4.18307100,0.00790477
-11.87999978,-2.50676700,-6.96665800,4.10617600,0.00790477
-11.79999977,-2.99889300,-7.38188900,4.02928100,0.00787402
-11.71999977,-3.42950300,-7.67408900,3.96776600,0.00784326
-11.63999977,-3.78321800,-7.82787800,3.93700800,0.00784326
-11.55999977,-4.04466000,-7.82787800,3.92162900,0.00784326
-11.47999977,-4.24458600,-7.67408900,3.92162900,0.00784326
-11.39999977,-4.36761800,-7.38188900,3.93700800,0.00787402
-11.31999977,-4.45989200,-6.96665800,3.93700800,0.00790477
-11.23999977,-4.49065000,-6.47453200,3.95238700,0.00790477
-11.15999977,-4.49065000,-5.92089000,3.95238700,0.00790477
-11.07999977,-4.44451300,-5.38262700,3.95238700,0.00790477
-10.99999976,-4.36761800,-4.85974400,3.93700800,0.00787402
-10.91999976,-4.22920700,-4.41375400,3.92162900,0.00784326
-10.83999976,-4.04466000,-4.06003900,3.92162900,0.00784326
-10.75999976,-3.78321800,-3.81397600,3.92162900,0.00784326
-10.67999976,-3.47564000,-3.66018700,3.92162900,0.00784326
-10.59999976,-3.10654500,-3.59867100,3.93700800,0.00787402
-10.51999976,-2.67593500,-3.59867100,3.95238700,0.00790477
-10.43999976,-2.21456700,-3.64480800,3.95238700,0.00790477
-10.35999976,-1.73782000,-3.72170300,3.95238700,0.00790477
-10.27999975,-1.26107300,-3.78321800,3.95238700,0.00790477
-10.19999975,-0.83046260,-3.82935500,3.93700800,0.00787402
-10.11999975,-0.44598910,-3.87549200,3.92162900,0.00784326
-10.03999975,-0.12303150,-3.90625000,3.92162900,0.00784326
-9.95999975,0.10765260,-3.93700800,3.92162900,0.00784326
-9.87999975,0.26144190,-3.98314500,3.92162900,0.00784326
-9.79999975,0.33833660,-4.04466000,3.93700800,0.00787402
-9.71999975,0.33833660,-4.10617600,3.95238700,0.00790477
-9.63999975,0.30757870,-4.18307100,3.95238700,0.00790477
-9.55999974,0.23068400,-4.25996500,3.95238700,0.00790477
-9.47999974,0.15378940,-4.29072300,3.95238700,0.00787402
-9.39999974,0.09227362,-4.27534400,3.93700800,0.00787402
-9.31999974,0.03075787,-4.18307100,3.92162900,0.00784326
-9.23999974,0.00000000,-4.02928100,3.92162900,0.00784326
-9.15999974,0.00000000,-3.79859700,3.92162900,0.00787402
-9.07999974,0.03075787,-3.49101900,3.92162900,0.00793553
-8.99999974,0.09227362,-3.10654500,3.93700800,0.00805856
-8.91999974,0.15378940,-2.67593500,3.95238700,0.00821235
-8.83999974,0.23068400,-2.21456700,3.95238700,0.00836614
-8.75999973,0.30757870,-1.73782000,3.95238700,0.00851993
-8.67999973,0.33833660,-1.26107300,3.95238700,0.00858145
-8.59999973,0.33833660,-0.83046260,3.93700800,0.00855069
-8.51999973,0.26144190,-0.44598910,3.93700800,0.00839690
-8.43999973,0.10765260,-0.12303150,3.92162900,0.00805856
-8.35999973,-0.12303150,0.10765260,3.90625000,0.00756644
-8.27999973,-0.44598910,0.26144190,3.89087100,0.00688976
-8.19999973,-0.83046260,0.33833660,3.84473400,0.00602854
-8.11999973,-1.26107300,0.33833660,3.78321800,0.00501353
-8.03999972,-1.73782000,0.30757870,3.72170300,0.00396777
-7.95999972,-2.21456700,0.23068400,3.64480800,0.00286048
-7.87999972,-2.67593500,0.16916830,3.59867100,0.00184547
-7.79999972,-3.10654500,0.09227362,3.59867100,0.00098425
-7.71999972,-3.49101900,0.04613681,3.66018700,0.00036909
-7.63999972,-3.79859700,0.01537894,3.81397600,0.00003076
-7.55999972,-4.02928100,0.00000000,4.06003900,0.00003076
-7.47999972,-4.18307100,-0.01537894,4.41375400,0.00036909
-7.39999972,-4.27534400,0.00000000,4.85974400,0.00098425
-7.31999972,-4.29072300,0.00000000,5.38262700,0.00184547
-7.23999971,-4.25996500,0.00000000,5.92089000,0.00286048
-7.15999971,-4.18307100,0.00000000,6.47453200,0.00396777
-7.07999971,-4.10617600,0.00000000,6.96665800,0.00501353
-6.99999971,-4.01390200,0.00000000,7.38188900,0.00599779
-6.91999971,-3.95238700,-0.01537894,7.67408900,0.00685901
-6.83999971,-3.92162900,0.00000000,7.82787800,0.00756644
-6.75999971,-3.93700800,0.01537894,7.82787800,0.00808932
-6.67999971,-3.99852300,0.04613681,7.67408900,0.00848917
-6.59999971,-4.12155500,0.09227362,7.38188900,0.00873524
-6.51999970,-4.27534400,0.16916830,6.96665800,0.00891978
-6.43999970,-4.42913300,0.23068400,6.47453200,0.00898130
-6.35999970,-4.56754400,0.30757870,5.92089000,0.00898130
-6.27999970,-4.62906000,0.35371550,5.38262700,0.00891978
-6.19999970,-4.61368100,0.33833660,4.85974400,0.00873524
-6.11999970,-4.45989200,0.27682080,4.41375400,0.00848917
-6.03999970,-4.13693400,0.10765260,4.06003900,0.00808932
-5.95999970,-3.66018700,-0.13841040,3.81397600,0.00756644
-5.87999970,-2.99889300,-0.49212600,3.66018700,0.00685901
-5.79999969,-2.18380900,-0.92273620,3.59867100,0.00599779
-5.71999969,-1.24569400,-1.43024100,3.59867100,0.00501353
-5.63999969,-0.24606300,-1.96850400,3.64480800,0.00396777
-5.55999969,0.78432570,-2.52214600,3.72170300,0.00286048
-5.47999969,1.75319900,-3.02965000,3.78321800,0.00184547
-5.39999969,2.61441900,-3.44488200,3.84473400,0.00098425
-5.31999969,3.30647100,-3.75246000,3.89087100,0.00036909
-5.23999969,3.76783900,-3.90625000,3.90625000,0.00003076
-5.15999969,4.01390200,-3.89087100,3.92162900,0.00003076
-5.07999969,3.99852300,-3.70632400,3.93700800,0.00036909
-4.99999968,3.78321800,-3.35260800,3.93700800,0.00098425
-4.91999968,3.36798700,-2.86048200,3.95238700,0.00184547
-4.83999968,2.82972400,-2.27608300,3.95238700,0.00286048
-4.75999968,2.21456700,-1.67630400,3.95238700,0.00396777
-4.67999968,1.59940900,-1.09190400,3.95238700,0.00501353
-4.59999968,1.01501000,-0.58439960,3.93700800,0.00602854
-4.51999968,0.53826270,-0.21530510,3.92162900,0.00688976
-4.43999968,0.15378940,-0.03075787,3.92162900,0.00756644
-4.35999968,-0.12303150,-0.03075787,3.92162900,0.00805856
-4.27999967,-0.27682080,-0.21530510,3.92162900,0.00839690
-4.19999967,-0.35371550,-0.58439960,3.93700800,0.00855069
-4.11999967,-0.35371550,-1.09190400,3.95238700,0.00858145
-4.03999967,-0.30757870,-1.67630400,3.95238700,0.00851993
-3.95999967,-0.23068400,-2.27608300,3.95238700,0.00836614
-3.87999967,-0.16916830,-2.86048200,3.95238700,0.00821235
-3.79999967,-0.10765260,-3.35260800,3.93700800,0.00805856
-3.71999967,-0.04613681,-3.70632400,3.93700800,0.00793553
-3.63999967,-0.01537894,-3.89087100,3.92162900,0.00784326
-3.55999966,0.01537894,-3.89087100,3.90625000,0.00784326
-3.47999966,0.04613681,-3.70632400,3.89087100,0.00793553
-3.39999966,0.10765260,-3.35260800,3.84473400,0.00805856
-3.31999966,0.16916830,-2.86048200,3.78321800,0.00821235
-3.23999966,0.23068400,-2.27608300,3.72170300,0.00836614
-3.15999966,0.30757870,-1.67630400,3.64480800,0.00851993
-3.07999966,0.35371550,-1.09190400,3.59867100,0.00858145
-2.99999966,0.33833660,-0.58439960,3.59867100,0.00855069
-2.91999966,0.27682080,-0.23068400,3.66018700,0.00839690
-2.83999966,0.10765260,-0.03075787,3.81397600,0.00805856
-2.75999965,-0.13841040,-0.01537894,4.06003900,0.00756644
-2.67999965,-0.49212600,-0.16916830,4.41375400,0.00688976
-2.59999965,-0.92273620,-0.49212600,4.85974400,0.00602854
-2.51999965,-1.43024100,-0.92273620,5.38262700,0.00501353
-2.43999965,-1.96850400,-1.43024100,5.92089000,0.00396777
-2.35999965,-2.52214600,-1.98388300,6.47453200,0.00286048
-2.27999965,-3.02965000,-2.50676700,6.96665800,0.00184547
-2.19999965,-3.44488200,-3.01427100,7.38188900,0.00098425
-2.11999965,-3.75246000,-3.44488200,7.67408900,0.00033834
-2.03999964,-3.90625000,-3.78321800,7.82787800,0.00003076
-1.95999964,-3.89087100,-4.02928100,7.82787800,0.00006152
-1.87999964,-3.70632400,-4.19845000,7.67408900,0.00046137
-1.79999964,-3.35260800,-4.27534400,7.38188900,0.00116880
-1.71999964,-2.86048200,-4.29072300,6.96665800,0.00218381
-1.63999964,-2.27608300,-4.25996500,6.47453200,0.00335261
-1.55999964,-1.67630400,-4.18307100,5.92089000,0.00455217
-1.47999964,-1.09190400,-4.10617600,5.41338600,0.00572097
-1.39999964,-0.58439960,-4.02928100,4.98277500,0.00670522
-1.31999963,-0.21530510,-3.96776600,4.61368100,0.00741265
-1.23999963,-0.03075787,-3.92162900,4.18307100,0.00778174
-1.15999963,-0.03075787,-3.92162900,3.61405000,0.00781250
-1.07999963,-0.21530510,-3.96776600,2.79896600,0.00750492
-0.99999963,-0.58439960,-4.02928100,1.69168300,0.00688976
-0.91999963,-1.09190400,-4.10617600,0.35371550,0.00605930
-0.83999963,-1.67630400,-4.18307100,-1.09190400,0.00504429
-0.75999963,-2.27608300,-4.25996500,-2.36835600,0.00393701
-0.67999963,-2.86048200,-4.29072300,-2.99889300,0.00286048
-0.59999963,-3.35260800,-4.27534400,-2.52214600,0.00187623
-0.51999962,-3.70632400,-4.18307100,-0.79970470,0.00098425
-0.43999962,-3.89087100,-4.02928100,2.09153500,0.00027682
-0.35999962,-3.89087100,-3.79859700,5.95164800,-0.00024606
-0.27999962,-3.70632400,-3.49101900,10.50381000,-0.00061516
-0.19999962,-3.35260800,-3.10654500,15.42507000,-0.00086122
-0.11999962,-2.86048200,-2.67593500,20.56164000,-0.00101501
-0.03999962,-2.27608300,-2.21456700,25.92889000,-0.00107653
0.04000038,-1.67630400,-1.73782000,31.80364000,-0.00107653
0.12000038,-1.12266200,-1.26107300,38.77030000,-0.00101501
0.20000039,-0.69205210,-0.83046260,47.55167000,-0.00086122
0.28000039,-0.36909450,-0.44598910,58.93208000,-0.00061516
0.36000039,-0.12303150,-0.12303150,73.63435000,-0.00024606
0.44000039,0.13841040,0.10765260,92.08907000,0.00027682
0.52000039,0.47674700,0.26144190,114.37310000,0.00092274
0.60000039,0.93811510,0.33833660,140.10210000,0.00166093
0.68000039,1.50713600,0.33833660,168.32240000,0.00255290
0.76000039,2.12229300,0.30757870,197.60390000,0.00347564
0.84000039,2.58366100,0.23068400,226.16260000,0.00442913
0.92000039,2.53752400,0.15378940,251.96850000,0.00535187
1.00000040,1.66092500,0.07689468,272.99150000,0.00621309
1.08000040,-0.07689468,0.03075787,287.46310000,0.00695128
1.16000040,-2.52214600,0.00000000,294.07600000,0.00756644
1.24000040,-5.39800600,0.01537894,292.10750000,0.00808932
1.32000040,-8.41227800,0.07689468,281.55760000,0.00845842
1.40000040,-11.31890000,0.18454720,263.14900000,0.00873524
1.48000040,-14.07173000,0.32295760,238.23510000,0.00888903
1.56000040,-16.82456000,0.47674700,208.64600000,0.00898130
1.64000040,-20.05413000,0.61515740,176.47330000,0.00898130
1.72000041,-24.72933000,0.64591530,143.88530000,0.00882751
1.80000041,-31.80364000,0.52288380,112.80450000,0.00848917
1.88000041,-41.81533000,0.29219980,84.84559000,0.00808932
1.96000041,-55.01045000,0.07689468,61.10051000,0.00784326
2.04000041,-71.23524000,-0.03075787,42.07677000,0.00796629
2.12000041,-90.08981000,0.10765260,27.77436000,0.00867372
2.20000041,-110.95900000,0.52288380,17.67040000,0.00999631
2.28000041,-133.13550000,1.19955700,10.96518000,0.01184178
2.36000041,-155.97320000,1.96850400,6.68983700,0.01390256
2.44000042,-179.01080000,2.56828200,3.78321800,0.01565576
2.52000042,-202.27910000,2.44525100,1.43024100,0.01611713
2.60000042,-225.97810000,1.09190400,-0.93811510,0.01448696
2.68000042,-250.00000000,-1.59940900,-3.56791300,0.01039616
2.76000042,-274.22180000,-5.50565900,-6.39763700,0.00399852
2.84000042,-298.41290000,-10.38078000,-9.24274100,-0.00442913
2.92000042,-322.23490000,-15.84030000,-11.78026000,-0.01424090
3.00000042,-345.33400000,-21.56127000,-13.71801000,-0.02494464
3.08000042,-367.27980000,-27.37451000,-14.85605000,-0.03617126
3.16000042,-387.68760000,-33.32615000,-15.14825000,-0.04785925
3.24000043,-406.29610000,-39.83145000,-14.88681000,-0.06043922
3.32000043,-423.07450000,-47.79773000,-14.37930000,-0.07504921
3.40000043,-438.08440000,-58.22465000,-13.73339000,-0.09301181
3.48000043,-451.15650000,-71.68122000,-13.02596000,-0.11509600
3.56000043,-462.12160000,-88.44426000,-12.21087000,-0.14179380
3.64000043,-470.79530000,-108.45230000,-11.28814000,-0.17310530
3.72000043,-476.99310000,-131.32070000,-10.16548000,-0.20859990
3.80000043,-480.54560000,-156.40380000,-8.82750900,-0.24738560
3.88000043,-481.42220000,-182.87090000,-7.24347900,-0.28823200
3.96000044,-479.63820000,-209.92250000,-5.44414400,-0.32984740
4.04000044,-475.34750000,-236.83560000,-3.53715500,-0.37084770
4.12000044,-468.91910000,-263.28740000,-1.63016700,-0.41027930
4.20000044,-460.79910000,-289.12400000,0.18454720,-0.44743480
4.28000044,-451.37180000,-314.02250000,1.84547200,-0.48148380
4.36000044,-440.92950000,-337.75220000,3.29109200,-0.51190330
4.44000044,-429.65670000,-360.05160000,4.49065000,-0.53826280
4.52000044,-417.66110000,-380.72090000,5.42876500,-0.56040850
4.60000044,-404.89660000,-399.51400000,6.12081600,-0.57830950
4.68000045,-391.30160000,-416.23090000,6.59756400,-0.59199680
4.76000045,-376.76860000,-430.68710000,6.90514200,-0.60162400
4.84000045,-361.09740000,-442.75960000,7.12044700,-0.60734500
4.92000045,-344.25750000,-452.43290000,7.27423700,-0.60940580
5.00000045,-326.61790000,-459.72250000,7.41264700,-0.60792930
5.08000045,-308.67060000,-464.53610000,7.58181600,-0.60288510
5.16000045,-290.98490000,-466.70460000,7.75098400,-0.59414980
5.24000045,-274.08340000,-466.12020000,7.93553100,-0.58160070
5.32000045,-258.30460000,-462.65990000,8.12007800,-0.56520670
5.40000045,-243.80230000,-456.32380000,8.27386800,-0.54496800
5.48000046,-230.46870000,-447.20410000,8.39689900,-0.52119220
5.56000046,-218.02720000,-435.50070000,8.44303500,-0.49437130
5.64000046,-205.73940000,-421.55200000,8.44303500,-0.46508980
5.72000046,-192.99030000,-405.80400000,8.39689900,-0.43423970
5.80000046,-179.65670000,-388.91790000,8.30462600,-0.40295890
5.88000046,-165.89260000,-371.43210000,8.16621500,-0.37229330
5.96000046,-151.99000000,-353.86930000,7.96628900,-0.34319640
6.04000046,-138.39510000,-336.56800000,7.70484700,-0.31637550
6.12000046,-125.47670000,-319.71270000,7.39726800,-0.29213830
6.20000047,-113.51190000,-303.30340000,7.04355200,-0.27045400
6.28000047,-102.63900000,-287.23240000,6.61294300,-0.25101500
6.36000047,-92.76574000,-271.28450000,6.16695300,-0.23320620
6.44000047,-83.41534000,-255.05960000,5.69020700,-0.21616630
6.52000047,-74.15723000,-238.32740000,5.21345900,-0.19909570
6.60000047,-64.92987000,-221.31830000,4.76747000,-0.18196360
6.68000047,-55.87167000,-204.43220000,4.36761800,-0.16504680
6.76000047,-47.22871000,-188.16130000,4.04466000,-0.14883740
6.84000047,-39.26242000,-173.02840000,3.81397600,-0.13395050
6.92000048,-32.23425000,-159.40270000,3.66018700,-0.12090920
7.00000048,-26.31336000,-147.46860000,3.59867100,-0.10999020
7.08000048,-21.49975000,-137.16470000,3.59867100,-0.10122420
7.16000048,-17.71653000,-128.18340000,3.64480800,-0.09433440
7.24000048,-14.56385000,-119.84810000,3.72170300,-0.08845965
7.32000048,-11.71875000,-111.52800000,3.78321800,-0.08276944
7.40000048,-9.11970900,-103.08500000,3.84473400,-0.07701772
7.48000048,-6.75135300,-94.59583000,3.89087100,-0.07120448
7.56000048,-4.75209100,-86.32197000,3.90625000,-0.06548351
7.64000048,-3.24495600,-78.60175000,3.92162900,-0.06016240
7.72000049,-2.38373500,-71.74274000,3.93700800,-0.05551796
7.80000049,-2.21456700,-65.99102000,3.93700800,-0.05179626
7.88000049,-2.76820900,-61.34658000,3.95238700,-0.04905881
7.96000049,-3.90625000,-57.68639000,3.95238700,-0.04718258
8.04000049,-5.39800600,-54.54909000,3.95238700,-0.04582923
8.12000049,-6.99741600,-51.39640000,3.95238700,-0.04450664
8.20000049,-8.53530900,-48.08994000,3.93700800,-0.04312254
8.28000049,-9.96555000,-44.58353000,3.93700800,-0.04161540
8.36000049,-11.21124000,-41.00024000,3.92162900,-0.04001600
8.44000050,-12.28777000,-37.49385000,3.90625000,-0.03844734
8.52000050,-13.21051000,-34.29503000,3.89087100,-0.03703248
8.60000050,-14.01021000,-31.51144000,3.84473400,-0.03583292
8.68000050,-14.76378000,-29.23536000,3.78321800,-0.03487943
8.76000050,-15.47121000,-27.40526000,3.72170300,-0.03423351
8.84000050,-16.14788000,-25.75972000,3.64480800,-0.03367987
8.92000050,-16.82456000,-24.00652000,3.59867100,-0.03312623
9.00000050,-17.54737000,-22.00726000,3.59867100,-0.03257259
9.08000050,-18.31631000,-19.68504000,3.66018700,-0.03204970
9.16000051,-19.16216000,-17.08600000,3.81397600,-0.03155758
9.24000051,-20.06951000,-14.25627000,4.06003900,-0.03121924
9.32000051,-21.03838000,-11.31890000,4.41375400,-0.03103469
9.40000051,-22.00726000,-8.36614100,4.85974400,-0.03103469
9.48000051,-22.94537000,-5.50565900,5.38262700,-0.03121924
9.56000051,-23.85273000,-2.76820900,5.92089000,-0.03149606
9.64000051,-24.66781000,-0.10765260,6.47453200,-0.03174213
9.72000051,-25.39062000,2.53752400,6.96665800,-0.03192667
9.80000051,-26.05192000,5.19808000,7.38188900,-0.03192667
9.88000051,-26.63632000,7.84325700,7.67408900,-0.03180364
9.96000052,-27.18996000,10.47305000,7.82787800,-0.03155758
10.04000052,-27.72822000,13.04134000,7.81250000,-0.03118848
10.12000052,-28.25111000,15.54810000,7.62795300,-0.03081939
10.20000052,-28.78937000,17.91646000,7.28961600,-0.03041954
10.28000052,-29.28149000,20.11565000,6.79749000,-0.02998893
10.36000052,-29.69673000,22.11491000,6.22846900,-0.02955832
10.44000052,-29.95817000,23.89887000,5.62869100,-0.02900467
10.52000052,-30.00430000,25.39062000,5.02891200,-0.02826649
10.60000052,-29.72748000,26.54404000,4.52140800,-0.02725148
10.68000053,-29.09695000,27.26685000,4.15231300,-0.02599040
10.76000053,-28.09732000,27.51292000,3.95238700,-0.02442175
10.84000053,-26.72859000,27.26685000,3.95238700,-0.02260704
10.92000053,-25.02153000,26.51329000,4.15231300,-0.02054626
11.00000053,-23.03765000,25.26759000,4.52140800,-0.01833169
11.08000053,-20.80770000,23.60667000,5.02891200,-0.01602485
11.16000053,-18.42397000,21.60740000,5.62869100,-0.01362574
11.24000053,-15.90182000,19.36208000,6.22846900,-0.01116511
11.32000053,-13.27202000,16.94759000,6.79749000,-0.00867372
