Time,Channel A,Channel B,Channel C,Channel D
(ns),(mV),(mV),(mV),(V)

-15.45714283,3.89087100,0.00000000,7.79712100,0.01565576
-15.37714282,3.73708200,0.00000000,7.45878400,0.01534818
-15.29714282,3.42950300,0.00000000,6.79749000,0.01476378
-15.21714282,3.01427100,0.00000000,5.87475300,0.01393332
-15.13714282,2.52214600,0.00000000,4.79822800,0.01294907
-15.05714282,1.96850400,0.00000000,3.64480800,0.01184178
-14.97714282,1.43024100,0.00000000,2.52214600,0.01076526
-14.89714282,0.92273620,0.00000000,1.52251500,0.00971949
-14.81714282,0.49212600,-0.01537894,0.70743110,0.00882751
-14.73714282,0.13841040,0.00000000,0.16916830,0.00812008
-14.65714281,-0.10765260,0.01537894,-0.09227362,0.00762795
-14.57714281,-0.27682080,0.04613681,-0.09227362,0.00732037
-14.49714281,-0.33833660,0.09227362,0.15378940,0.00719734
-14.41714281,-0.35371550,0.16916830,0.56902060,0.00719734
-14.33714281,-0.30757870,0.23068400,1.12266200,0.00728962
-14.25714281,-0.23068400,0.30757870,1.73782000,0.00744341
-14.17714281,-0.16916830,0.35371550,2.35297700,0.00756644
-14.09714281,-0.09227362,0.33833660,2.92199800,0.00768947
-14.01714281,-0.04613681,0.27682080,3.39874500,0.00778174
-13.93714280,-0.01537894,0.10765260,3.76783900,0.00781250
-13.85714280,0.00000000,-0.13841040,4.04466000,0.00784326
-13.77714280,0.01537894,-0.49212600,4.21382900,0.00787402
-13.69714280,0.00000000,-0.92273620,4.29072300,0.00787402
-13.61714280,0.00000000,-1.43024100,4.29072300,0.00790477
-13.53714280,0.00000000,-1.96850400,4.25996500,0.00790477
-13.45714280,0.00000000,-2.52214600,4.18307100,0.00790477
-13.37714280,0.00000000,-3.02965000,4.10617600,0.00790477
-13.29714280,0.00000000,-3.44488200,4.02928100,0.00787402
-13.21714280,0.00000000,-3.75246000,3.96776600,0.00784326
-13.13714279,0.00000000,-3.90625000,3.92162900,0.00784326
-13.05714279,0.00000000,-3.89087100,3.92162900,0.00784326
-12.97714279,0.00000000,-3.70632400,3.96776600,0.00784326
-12.89714279,0.00000000,-3.35260800,4.02928100,0.00787402
-12.81714279,0.00000000,-2.86048200,4.10617600,0.00790477
-12.73714279,0.00000000,-2.27608300,4.18307100,0.00790477
-12.65714279,0.00000000,-1.67630400,4.25996500,0.00790477
-12.57714279,0.00000000,-1.09190400,4.29072300,0.00787402
-12.49714279,0.00000000,-0.58439960,4.27534400,0.00787402
-12.41714278,0.00000000,-0.21530510,4.19845000,0.00784326
-12.33714278,0.00000000,-0.03075787,4.02928100,0.00784326
-12.25714278,0.00000000,-0.03075787,3.78321800,0.00787402
-12.17714278,0.00000000,-0.21530510,3.44488200,0.00793553
-12.09714278,0.00000000,-0.58439960,3.01427100,0.00805856
-12.01714278,0.00000000,-1.09190400,2.50676700,0.00821235
-11.93714278,0.00000000,-1.67630400,1.98388300,0.00836614
-11.85714278,0.00000000,-2.27608300,1.43024100,0.00851993
-11.77714278,0.00000000,-2.86048200,0.92273620,0.00858145
-11.69714277,0.00000000,-3.35260800,0.49212600,0.00855069
-11.61714277,0.00000000,-3.70632400,0.18454720,0.00839690
-11.53714277,0.00000000,-3.89087100,0.01537894,0.00805856
-11.45714277,0.00000000,-3.90625000,0.01537894,0.00756644
-11.37714277,0.00000000,-3.75246000,0.18454720,0.00688976
-11.29714277,0.00000000,-3.44488200,0.49212600,0.00602854
-11.21714277,0.00000000,-3.02965000,0.92273620,0.00501353
-11.13714277,0.00000000,-2.52214600,1.43024100,0.00396777
-11.05714277,0.00000000,-1.96850400,1.98388300,0.00286048
-10.97714277,0.00000000,-1.43024100,2.50676700,0.00184547
-10.89714276,0.00000000,-0.92273620,2.99889300,0.00098425
-10.81714276,0.00000000,-0.49212600,3.42950300,0.00036909
-10.73714276,0.00000000,-0.13841040,3.78321800,0.00003076
-10.65714276,0.00000000,0.10765260,4.04466000,0.00003076
-10.57714276,0.00000000,0.27682080,4.24458600,0.00036909
-10.49714276,0.00000000,0.33833660,4.36761800,0.00098425
-10.41714276,0.00000000,0.35371550,4.45989200,0.00184547
-10.33714276,0.00000000,0.30757870,4.49065000,0.00286048
-10.25714276,0.00000000,0.23068400,4.49065000,0.00396777
-10.17714275,0.00000000,0.15378940,4.45989200,0.00504429
-10.09714275,0.00000000,0.09227362,4.36761800,0.00602854
-10.01714275,0.00000000,0.03075787,4.24458600,0.00688976
-9.93714275,0.00000000,0.00000000,4.04466000,0.00756644
-9.85714275,0.00000000,0.00000000,3.78321800,0.00805856
-9.77714275,0.00000000,0.03075787,3.42950300,0.00830463
-9.69714275,0.00000000,0.09227362,2.99889300,0.00836614
-9.61714275,0.00000000,0.15378940,2.50676700,0.00827387
-9.53714275,0.00000000,0.23068400,1.98388300,0.00802781
-9.45714274,0.00000000,0.30757870,1.43024100,0.00778174
-9.37714274,0.00000000,0.35371550,0.92273620,0.00753568
-9.29714274,0.00000000,0.33833660,0.50750490,0.00738189
-9.21714274,0.00000000,0.27682080,0.19992620,0.00741265
-9.13714274,0.00000000,0.10765260,0.03075787,0.00762795
-9.05714274,0.00000000,-0.13841040,0.01537894,0.00812008
-8.97714274,0.00000000,-0.49212600,0.13841040,0.00879675
-8.89714274,0.00000000,-0.92273620,0.39985230,0.00971949
-8.81714274,0.00000000,-1.43024100,0.76894680,0.01073450
-8.73714274,0.00000000,-1.96850400,1.19955700,0.01184178
-8.65714273,0.00000000,-2.52214600,1.67630400,0.01294907
-8.57714273,0.00000000,-3.02965000,2.16843000,0.01393332
-8.49714273,0.00000000,-3.44488200,2.67593500,0.01476378
-8.41714273,0.01537894,-3.75246000,3.16806100,0.01534818
-8.33714273,0.00000000,-3.90625000,3.67556500,0.01565576
-8.25714273,-0.01537894,-3.89087100,4.16769200,0.01565576
-8.17714273,-0.04613681,-3.70632400,4.69057600,0.01534818
-8.09714273,-0.09227362,-3.35260800,5.19808000,0.01476378
-8.01714273,-0.16916830,-2.86048200,5.72096400,0.01393332
-7.93714272,-0.23068400,-2.27608300,6.22846900,0.01294907
-7.85714272,-0.30757870,-1.67630400,6.70521600,0.01184178
-7.77714272,-0.35371550,-1.09190400,7.12044700,0.01073450
-7.69714272,-0.33833660,-0.58439960,7.45878400,0.00971949
-7.61714272,-0.27682080,-0.23068400,7.70484700,0.00879675
-7.53714272,-0.10765260,-0.03075787,7.82787800,0.00812008
-7.45714272,0.13841040,-0.01537894,7.82787800,0.00762795
-7.37714272,0.49212600,-0.16916830,7.70484700,0.00741265
-7.29714272,0.92273620,-0.49212600,7.45878400,0.00738189
-7.21714272,1.43024100,-0.92273620,7.12044700,0.00753568
-7.13714271,1.96850400,-1.43024100,6.70521600,0.00778174
-7.05714271,2.52214600,-1.98388300,6.22846900,0.00802781
-6.97714271,3.01427100,-2.50676700,5.72096400,0.00824311
-6.89714271,3.42950300,-3.01427100,5.21345900,0.00836614
-6.81714271,3.73708200,-3.44488200,4.69057600,0.00830463
-6.73714271,3.89087100,-3.78321800,4.18307100,0.00802781
-6.65714271,3.90625000,-4.02928100,3.66018700,0.00759720
-6.57714271,3.78321800,-4.19845000,3.12192400,0.00698204
-6.49714271,3.53715500,-4.27534400,2.56828200,0.00621309
-6.41714270,3.18344000,-4.29072300,1.99926200,0.00535187
-6.33714270,2.75283000,-4.25996500,1.43024100,0.00442913
-6.25714270,2.27608300,-4.18307100,0.89197830,0.00347564
-6.17714270,1.76857800,-4.10617600,0.41523130,0.00255290
-6.09714270,1.26107300,-4.02928100,0.06151574,0.00166093
-6.01714270,0.75356790,-3.96776600,-0.12303150,0.00092274
-5.93714270,0.24606300,-3.92162900,-0.10765260,0.00027682
-5.85714270,-0.24606300,-3.92162900,0.16916830,-0.00024606
-5.77714270,-0.70743110,-3.96776600,0.67667320,-0.00061516
-5.69714269,-1.16879900,-4.02928100,1.43024100,-0.00086122
-5.61714269,-1.61478800,-4.10617600,2.35297700,-0.00101501
-5.53714269,-2.04539800,-4.18307100,3.41412400,-0.00107653
-5.45714269,-2.44525100,-4.25996500,4.49065000,-0.00107653
-5.37714269,-2.82972400,-4.29072300,5.53641700,-0.00101501
-5.29714269,-3.18344000,-4.27534400,6.45915300,-0.00086122
-5.21714269,-3.50639700,-4.19845000,7.18196300,-0.00061516
-5.13714269,-3.79859700,-4.02928100,7.68946800,-0.00024606
-5.05714269,-4.04466000,-3.78321800,7.93553100,0.00027682
-4.97714269,-4.25996500,-3.44488200,7.93553100,0.00092274
-4.89714268,-4.45989200,-3.01427100,7.72022600,0.00166093
-4.81714268,-4.61368100,-2.50676700,7.32037400,0.00255290
-4.73714268,-4.73671200,-1.98388300,6.78211100,0.00347564
-4.65714268,-4.79822800,-1.43024100,6.16695300,0.00442913
-4.57714268,-4.79822800,-0.92273620,5.53641700,0.00535187
-4.49714268,-4.70595500,-0.49212600,4.95201700,0.00621309
-4.41714268,-4.49065000,-0.18454720,4.45989200,0.00698204
-4.33714268,-4.15231300,-0.01537894,4.07541800,0.00759720
-4.25714268,-3.66018700,-0.01537894,3.79859700,0.00805856
-4.17714267,-3.02965000,-0.18454720,3.64480800,0.00836614
-4.09714267,-2.27608300,-0.49212600,3.58329200,0.00855069
-4.01714267,-1.39948300,-0.92273620,3.59867100,0.00858145
-3.93714267,-0.47674700,-1.43024100,3.64480800,0.00851993
-3.85714267,0.47674700,-1.98388300,3.72170300,0.00836614
-3.77714267,1.39948300,-2.50676700,3.78321800,0.00821235
-3.69714267,2.27608300,-3.01427100,3.84473400,0.00805856
-3.61714267,3.02965000,-3.44488200,3.89087100,0.00793553
-3.53714267,3.66018700,-3.78321800,3.90625000,0.00787402
-3.45714266,4.15231300,-4.02928100,3.92162900,0.00784326
-3.37714266,4.49065000,-4.19845000,3.93700800,0.00784326
-3.29714266,4.70595500,-4.27534400,3.93700800,0.00787402
-3.21714266,4.79822800,-4.29072300,3.95238700,0.00787402
-3.13714266,4.79822800,-4.25996500,3.95238700,0.00790477
-3.05714266,4.73671200,-4.18307100,3.95238700,0.00790477
-2.97714266,4.61368100,-4.10617600,3.95238700,0.00787402
-2.89714266,4.47527100,-4.02928100,3.93700800,0.00787402
-2.81714266,4.29072300,-3.96776600,3.92162900,0.00784326
-2.73714266,4.06003900,-3.92162900,3.92162900,0.00784326
-2.65714265,3.76783900,-3.92162900,3.92162900,0.00787402
-2.57714265,3.41412400,-3.96776600,3.92162900,0.00793553
-2.49714265,2.99889300,-4.02928100,3.93700800,0.00805856
-2.41714265,2.50676700,-4.10617600,3.95238700,0.00821235
-2.33714265,1.98388300,-4.18307100,3.95238700,0.00836614
-2.25714265,1.43024100,-4.25996500,3.95238700,0.00851993
-2.17714265,0.92273620,-4.29072300,3.95238700,0.00858145
-2.09714265,0.49212600,-4.25996500,3.93700800,0.00855069
-2.01714265,0.16916830,-4.18307100,3.92162900,0.00836614
-1.93714264,0.01537894,-4.02928100,3.92162900,0.00805856
-1.85714264,0.03075787,-3.79859700,3.92162900,0.00759720
-1.77714264,0.23068400,-3.52177600,3.92162900,0.00698204
-1.69714264,0.58439960,-3.19881900,3.93700800,0.00621309
-1.61714264,1.09190400,-2.84510300,3.95238700,0.00535187
-1.53714264,1.67630400,-2.44525100,3.95238700,0.00442913
-1.45714264,2.27608300,-2.04539800,3.95238700,0.00347564
-1.37714264,2.86048200,-1.61478800,3.99852300,0.00255290
-1.29714264,3.35260800,-1.16879900,4.12155500,0.00166093
-1.21714263,3.70632400,-0.70743110,4.19845000,0.00092274
-1.13714263,3.89087100,-0.24606300,4.09079700,0.00027682
-1.05714263,3.90625000,0.24606300,3.64480800,-0.00024606
-0.97714263,3.75246000,0.75356790,2.72207200,-0.00061516
-0.89714263,3.44488200,1.26107300,1.27645200,-0.00086122
-0.81714263,3.02965000,1.76857800,-0.59977850,-0.00101501
-0.73714263,2.52214600,2.27608300,-2.67593500,-0.00107653
-0.65714263,1.96850400,2.75283000,-4.56754400,-0.00107653
-0.57714263,1.43024100,3.18344000,-5.62869100,-0.00101501
-0.49714263,0.90735720,3.53715500,-5.21345900,-0.00086122
-0.41714262,0.46136810,3.79859700,-3.01427100,-0.00061516
-0.33714262,0.12303150,3.92162900,1.13804100,-0.00024606
-0.25714262,-0.09227362,3.89087100,7.15120500,0.00027682
-0.17714262,-0.18454720,3.69094500,14.77916000,0.00092274
-0.09714262,-0.15378940,3.33722900,23.66818000,0.00166093
-0.01714262,-0.01537894,2.86048200,33.46457000,0.00255290
0.06285738,0.16916830,2.27608300,43.84534000,0.00347564
0.14285738,0.36909450,1.67630400,54.68750000,0.00442913
0.22285738,0.49212600,1.07652500,66.03716000,0.00535187
0.30285739,0.46136810,0.58439960,78.12499000,0.00621309
0.38285739,0.29219980,0.21530510,91.27399000,0.00698204
0.46285739,0.09227362,0.01537894,105.83780000,0.00759720
0.54285739,-0.06151574,0.03075787,122.10870000,0.00805856
0.62285739,-0.06151574,0.26144190,140.14820000,0.00836614
0.70285739,0.15378940,0.67667320,159.77180000,0.00855069
0.78285739,0.55364170,1.24569400,180.41030000,0.00858145
0.86285739,1.03038900,1.90698800,201.17190000,0.00851993
0.94285739,1.35334600,2.58366100,220.81080000,0.00836614
1.02285739,1.07652500,3.19881900,237.94290000,0.00821235
1.10285740,-0.23068400,3.67556500,251.10730000,0.00802781
1.18285740,-2.59904000,3.95238700,258.99660000,0.00790477
1.26285740,-5.92089000,3.99852300,260.61150000,0.00784326
1.34285740,-9.90403500,3.78321800,255.39800000,0.00787402
1.42285740,-14.24089000,3.35260800,243.35630000,0.00799705
1.50285740,-18.62389000,2.70669300,225.00920000,0.00824311
1.58285740,-22.94537000,1.92236700,201.44870000,0.00855069
1.66285740,-27.32837000,1.01501000,174.15110000,0.00885827
1.74285740,-32.18811000,0.06151574,144.82340000,0.00913509
1.82285741,-38.49348000,-0.95349410,115.29590000,0.00916585
1.90285741,-47.19795000,-2.03002000,87.19856000,0.00888903
1.98285741,-58.87056000,-3.01427100,61.94635000,0.00839690
2.06285741,-73.75738000,-3.72170300,40.49274000,0.00796629
2.14285741,-91.73535000,-3.98314500,23.36060000,0.00784326
2.22285741,-112.40460000,-3.64480800,10.53457000,0.00833538
2.30285741,-135.13470000,-2.69131400,1.64554600,0.00950418
2.38285741,-159.18740000,-1.19955700,-4.02928100,0.01125738
2.46285741,-183.82440000,0.56902060,-7.35113100,0.01325664
2.54285742,-208.49220000,2.18380900,-9.28887700,0.01485605
2.62285742,-233.08320000,2.92199800,-10.65760000,0.01491757
2.70285742,-257.65870000,2.10691400,-11.93405000,0.01227239
2.78285742,-282.01900000,-0.52288380,-13.36430000,0.00655143
2.86285742,-305.97930000,-4.98277500,-14.91757000,-0.00230684
2.94285742,-329.24760000,-11.07283000,-16.40932000,-0.01402559
3.02285742,-351.54710000,-18.39321000,-17.56274000,-0.02795891
3.10285742,-372.55470000,-26.57480000,-18.11639000,-0.04346088
3.18285742,-391.94760000,-35.27928000,-17.91646000,-0.05997786
3.26285742,-409.47960000,-44.39899000,-16.93221000,-0.07723302
3.34285743,-424.95070000,-54.10310000,-15.44045000,-0.09538016
3.42285743,-438.45350000,-65.06828000,-13.74877000,-0.11537280
3.50285743,-450.12610000,-78.06348000,-12.02633000,-0.13825660
3.58285743,-459.89170000,-93.51931000,-10.31927000,-0.16473920
3.66285743,-467.62730000,-111.58960000,-8.65834000,-0.19512790
3.74285743,-473.17910000,-132.19730000,-7.02817400,-0.22945370
3.82285743,-476.40870000,-154.98890000,-5.39800600,-0.26722440
3.90285743,-477.13150000,-179.37990000,-3.70632400,-0.30764030
3.98285743,-475.33220000,-204.67830000,-1.93774600,-0.34956320
4.06285744,-471.02610000,-230.17650000,-0.10765260,-0.39164000
4.14285744,-464.36700000,-255.24420000,1.73782000,-0.43264030
4.22285744,-455.67790000,-279.63520000,3.49101900,-0.47161050
4.30285744,-445.45090000,-303.22650000,5.07504900,-0.50768950
4.38285744,-434.11660000,-325.72590000,6.42839500,-0.54007750
4.46285744,-422.02870000,-346.91800000,7.45878400,-0.56819020
4.54285744,-409.41800000,-366.54160000,8.13545700,-0.59162770
4.62285744,-396.43820000,-384.39650000,8.42765700,-0.61011320
4.70285744,-383.05850000,-400.28300000,8.36614100,-0.62373890
4.78285745,-369.20210000,-414.01630000,7.99704600,-0.63262800
4.86285745,-354.71510000,-425.45830000,7.38188900,-0.63705710
4.94285745,-339.30550000,-434.51640000,6.64370100,-0.63733390
5.02285745,-322.86540000,-441.28320000,5.85937500,-0.63388900
5.10285745,-305.70250000,-445.83540000,5.15194400,-0.62709150
5.18285745,-288.26280000,-448.11150000,4.55216500,-0.61709520
5.26285745,-271.11530000,-448.08070000,4.09079700,-0.60396160
5.34285745,-254.75210000,-445.62010000,3.78321800,-0.58766000
5.42285745,-239.55770000,-440.66800000,3.58329200,-0.56822100
5.50285745,-225.71660000,-433.20930000,3.47564000,-0.54570620
5.58285746,-213.13670000,-423.32060000,3.42950300,-0.52020790
5.66285746,-201.49480000,-411.17120000,3.41412400,-0.49212600
5.74285746,-190.09900000,-397.00720000,3.41412400,-0.46189100
5.82285746,-178.27260000,-381.24380000,3.42950300,-0.43014890
5.90285746,-165.84640000,-364.46540000,3.50639700,-0.39794540
5.98285746,-152.95890000,-347.24100000,3.61405000,-0.36623400
6.06285746,-139.85600000,-330.07810000,3.79859700,-0.33596830
6.14285746,-126.96850000,-313.34580000,4.06003900,-0.30788630
6.22285746,-114.65000000,-297.24410000,4.42913300,-0.28238800
6.30285747,-103.20800000,-281.80360000,4.87512300,-0.25947340
6.38285747,-92.76574000,-266.88610000,5.38262700,-0.23889640
6.46285747,-83.26156000,-252.24530000,5.92089000,-0.22013410
6.54285747,-74.24950000,-237.45080000,6.47453200,-0.20226380
6.62285747,-65.31434000,-222.17950000,6.96665800,-0.18451650
6.70285747,-56.42532000,-206.58530000,7.38188900,-0.16683070
6.78285747,-47.69008000,-191.02180000,7.67408900,-0.14954480
6.86285747,-39.29318000,-175.90430000,7.82787800,-0.13315080
6.94285747,-31.49606000,-161.70950000,7.81250000,-0.11832550
7.02285748,-24.54478000,-148.82200000,7.62795300,-0.10559180
7.10285748,-18.57775000,-137.41080000,7.28961600,-0.09525713
7.18285748,-13.62574000,-127.46060000,6.79749000,-0.08732160
7.26285748,-9.64259300,-118.74080000,6.22846900,-0.08138534
7.34285748,-6.28998500,-110.60530000,5.62869100,-0.07658710
7.42285748,-3.30647100,-102.51600000,5.02891200,-0.07203494
7.50285748,-0.67667320,-94.33440000,4.52140800,-0.06732899
7.58285748,1.56865100,-86.16818000,4.15231300,-0.06240772
7.66285748,3.30647100,-78.27879000,3.95238700,-0.05739419
7.74285748,4.36761800,-70.95841000,3.95238700,-0.05250369
7.82285749,4.64443900,-64.53002000,4.15231300,-0.04804380
7.90285749,4.09079700,-59.16277000,4.52140800,-0.04422982
7.98285749,2.75283000,-54.90280000,5.02891200,-0.04118479
8.06285749,0.75356790,-51.59633000,5.62869100,-0.03893947
8.14285749,-1.63016700,-48.78198000,6.22846900,-0.03718627
8.22285749,-4.10617600,-45.99840000,6.79749000,-0.03555610
8.30285749,-6.55142700,-43.07640000,7.28961600,-0.03407972
8.38285749,-8.81213000,-39.98523000,7.62795300,-0.03275714
8.46285749,-10.84215000,-36.84793000,7.81250000,-0.03174213
8.54285750,-12.62611000,-33.81828000,7.82787800,-0.03115773
8.62285750,-14.16400000,-31.09621000,7.67408900,-0.03109621
8.70285750,-15.51735000,-28.83550000,7.38188900,-0.03164985
8.78285750,-16.71690000,-27.06693000,6.96665800,-0.03272638
8.86285750,-17.80881000,-25.72896000,6.47453200,-0.03420275
8.94285750,-18.83920000,-24.56016000,5.92089000,-0.03583292
9.02285750,-19.82345000,-23.25295000,5.38262700,-0.03730930
9.10285750,-20.82308000,-21.60740000,4.85974400,-0.03844734
9.18285750,-21.88423000,-19.56201000,4.41375400,-0.03915477
9.26285751,-22.97613000,-17.07062000,4.06003900,-0.03933932
9.34285751,-24.09879000,-14.22552000,3.81397600,-0.03900098
9.42285751,-25.23683000,-11.07283000,3.66018700,-0.03817052
9.50285751,-26.35950000,-7.78174200,3.59867100,-0.03694021
9.58285751,-27.38988000,-4.41375400,3.59867100,-0.03540231
9.66285751,-28.34338000,-1.09190400,3.64480800,-0.03364911
9.74285751,-29.15846000,2.18380900,3.72170300,-0.03174213
9.82285751,-29.85052000,5.39800600,3.78321800,-0.02974286
9.90285751,-30.41954000,8.53530900,3.84473400,-0.02777436
9.98285751,-30.86552000,11.53420000,3.89087100,-0.02589813
10.06285752,-31.23462000,14.34855000,3.90625000,-0.02423720
10.14285752,-31.51144000,16.96297000,3.92162900,-0.02288386
10.22285752,-31.72675000,19.34670000,3.93700800,-0.02186885
10.30285752,-31.88053000,21.45362000,3.93700800,-0.02116142
10.38285752,-31.95743000,23.29909000,3.95238700,-0.02073081
10.46285752,-31.91129000,24.88312000,3.95238700,-0.02045399
10.54285752,-31.69599000,26.17495000,3.95238700,-0.02017717
10.62285752,-31.26538000,27.15920000,3.95238700,-0.01974656
10.70285752,-30.54257000,27.78974000,3.93700800,-0.01903912
10.78285753,-29.52756000,28.00504000,3.92162900,-0.01796260
10.86285753,-28.22035000,27.75898000,3.92162900,-0.01654774
10.94285753,-26.63632000,27.03617000,3.92162900,-0.01476378
11.02285753,-24.80622000,25.83661000,3.92162900,-0.01264149
11.10285753,-22.79158000,24.19107000,3.93700800,-0.01030389
11.18285753,-20.63853000,22.16105000,3.95238700,-0.00781250
11.26285753,-18.34707000,19.80807000,3.95238700,-0.00525960
11.34285753,-15.96334000,17.22441000,3.95238700,-0.00264518
11.42285753,-13.45657000,14.45620000,3.95238700,-0.00009227
11.50285753,-10.82677000,11.54958000,3.93700800,0.00242987
11.58285754,-8.10469900,8.53530900,3.92162900,0.00479823
