Time,Channel A,Channel B,Channel C,Channel D
(ns),(mV),(mV),(mV),(V)

-15.25479483,-4.01390200,-4.02928100,3.78321800,0.00812008
-15.17479482,-4.01390200,-4.18307100,3.44488200,0.00879675
-15.09479482,-3.78321800,-4.27534400,3.01427100,0.00971949
-15.01479482,-3.36798700,-4.29072300,2.50676700,0.01073450
-14.93479482,-2.82972400,-4.25996500,1.98388300,0.01184178
-14.85479482,-2.21456700,-4.18307100,1.43024100,0.01294907
-14.77479482,-1.59940900,-4.10617600,0.92273620,0.01393332
-14.69479482,-1.01501000,-4.02928100,0.49212600,0.01476378
-14.61479482,-0.53826270,-3.96776600,0.18454720,0.01534818
-14.53479482,-0.15378940,-3.92162900,0.01537894,0.01565576
-14.45479481,0.12303150,-3.92162900,0.01537894,0.01565576
-14.37479481,0.27682080,-3.96776600,0.18454720,0.01534818
-14.29479481,0.35371550,-4.02928100,0.49212600,0.01476378
-14.21479481,0.35371550,-4.10617600,0.92273620,0.01393332
-14.13479481,0.30757870,-4.18307100,1.43024100,0.01294907
-14.05479481,0.23068400,-4.25996500,1.98388300,0.01184178
-13.97479481,0.16916830,-4.29072300,2.50676700,0.01076526
-13.89479481,0.09227362,-4.27534400,3.01427100,0.00971949
-13.81479481,0.04613681,-4.19845000,3.44488200,0.00882751
-13.73479480,0.01537894,-4.02928100,3.78321800,0.00812008
-13.65479480,0.00000000,-3.78321800,4.02928100,0.00762795
-13.57479480,-0.01537894,-3.44488200,4.19845000,0.00732037
-13.49479480,0.00000000,-3.01427100,4.27534400,0.00719734
-13.41479480,0.00000000,-2.50676700,4.29072300,0.00719734
-13.33479480,0.00000000,-1.98388300,4.25996500,0.00728962
-13.25479480,0.00000000,-1.43024100,4.18307100,0.00744341
-13.17479480,0.00000000,-0.92273620,4.10617600,0.00756644
-13.09479480,0.00000000,-0.49212600,4.02928100,0.00768947
-13.01479480,0.00000000,-0.18454720,3.96776600,0.00778174
-12.93479479,0.00000000,-0.01537894,3.92162900,0.00781250
-12.85479479,0.00000000,-0.01537894,3.92162900,0.00784326
-12.77479479,0.00000000,-0.18454720,3.96776600,0.00787402
-12.69479479,0.00000000,-0.49212600,4.02928100,0.00787402
-12.61479479,0.00000000,-0.92273620,4.10617600,0.00790477
-12.53479479,0.00000000,-1.43024100,4.18307100,0.00790477
-12.45479479,0.00000000,-1.98388300,4.25996500,0.00790477
-12.37479479,0.00000000,-2.50676700,4.29072300,0.00790477
-12.29479479,0.00000000,-2.99889300,4.27534400,0.00787402
-12.21479478,0.00000000,-3.42950300,4.19845000,0.00784326
-12.13479478,0.00000000,-3.78321800,4.02928100,0.00784326
-12.05479478,0.00000000,-4.04466000,3.78321800,0.00784326
-11.97479478,0.00000000,-4.24458600,3.44488200,0.00784326
-11.89479478,0.00000000,-4.36761800,3.01427100,0.00787402
-11.81479478,0.00000000,-4.45989200,2.50676700,0.00790477
-11.73479478,0.00000000,-4.49065000,1.98388300,0.00790477
-11.65479478,0.00000000,-4.49065000,1.43024100,0.00790477
-11.57479478,0.00000000,-4.45989200,0.92273620,0.00790477
-11.49479477,0.00000000,-4.36761800,0.49212600,0.00787402
-11.41479477,-0.01537894,-4.24458600,0.18454720,0.00784326
-11.33479477,0.00000000,-4.04466000,0.01537894,0.00784326
-11.25479477,0.01537894,-3.78321800,0.01537894,0.00784326
-11.17479477,0.04613681,-3.42950300,0.18454720,0.00784326
-11.09479477,0.09227362,-2.99889300,0.49212600,0.00787402
-11.01479477,0.16916830,-2.50676700,0.92273620,0.00790477
-10.93479477,0.23068400,-1.98388300,1.43024100,0.00790477
-10.85479477,0.30757870,-1.43024100,1.98388300,0.00790477
-10.77479477,0.33833660,-0.92273620,2.50676700,0.00790477
-10.69479476,0.33833660,-0.49212600,3.01427100,0.00787402
-10.61479476,0.26144190,-0.18454720,3.44488200,0.00784326
-10.53479476,0.10765260,-0.01537894,3.78321800,0.00784326
-10.45479476,-0.12303150,-0.01537894,4.02928100,0.00784326
-10.37479476,-0.44598910,-0.18454720,4.19845000,0.00784326
-10.29479476,-0.83046260,-0.49212600,4.27534400,0.00787402
-10.21479476,-1.26107300,-0.92273620,4.29072300,0.00790477
-10.13479476,-1.73782000,-1.43024100,4.25996500,0.00790477
-10.05479476,-2.21456700,-1.98388300,4.18307100,0.00790477
-9.97479475,-2.67593500,-2.52214600,4.10617600,0.00790477
-9.89479475,-3.10654500,-3.01427100,4.02928100,0.00787402
-9.81479475,-3.47564000,-3.44488200,3.96776600,0.00784326
-9.73479475,-3.78321800,-3.78321800,3.93700800,0.00784326
-9.65479475,-4.04466000,-4.02928100,3.92162900,0.00784326
-9.57479475,-4.22920700,-4.15231300,3.92162900,0.00784326
-9.49479475,-4.36761800,-4.18307100,3.93700800,0.00787402
-9.41479475,-4.44451300,-4.13693400,3.93700800,0.00790477
-9.33479475,-4.49065000,-4.01390200,3.95238700,0.00790477
-9.25479474,-4.49065000,-3.89087100,3.95238700,0.00790477
-9.17479474,-4.44451300,-3.76783900,3.93700800,0.00787402
-9.09479474,-4.36761800,-3.69094500,3.93700800,0.00787402
-9.01479474,-4.22920700,-3.70632400,3.92162900,0.00784326
-8.93479474,-4.04466000,-3.81397600,3.92162900,0.00784326
-8.85479474,-3.78321800,-4.06003900,3.93700800,0.00787402
-8.77479474,-3.47564000,-4.39837600,3.96776600,0.00793553
-8.69479474,-3.10654500,-4.85974400,4.02928100,0.00805856
-8.61479474,-2.67593500,-5.36724900,4.10617600,0.00821235
-8.53479474,-2.21456700,-5.92089000,4.18307100,0.00836614
-8.45479473,-1.73782000,-6.47453200,4.25996500,0.00851993
-8.37479473,-1.26107300,-6.96665800,4.29072300,0.00858145
-8.29479473,-0.83046260,-7.38188900,4.27534400,0.00855069
-8.21479473,-0.43061020,-7.67408900,4.19845000,0.00839690
-8.13479473,-0.12303150,-7.82787800,4.02928100,0.00805856
-8.05479473,0.09227362,-7.82787800,3.78321800,0.00756644
-7.97479473,0.21530510,-7.67408900,3.44488200,0.00688976
-7.89479473,0.24606300,-7.38188900,3.01427100,0.00602854
-7.81479473,0.18454720,-6.96665800,2.50676700,0.00501353
-7.73479472,0.06151574,-6.47453200,1.98388300,0.00396777
-7.65479472,-0.06151574,-5.92089000,1.43024100,0.00286048
-7.57479472,-0.18454720,-5.38262700,0.92273620,0.00184547
-7.49479472,-0.24606300,-4.85974400,0.49212600,0.00098425
-7.41479472,-0.21530510,-4.41375400,0.18454720,0.00033834
-7.33479472,-0.09227362,-4.06003900,0.01537894,0.00003076
-7.25479472,0.12303150,-3.81397600,0.01537894,0.00006152
-7.17479472,0.43061020,-3.66018700,0.18454720,0.00046137
-7.09479472,0.83046260,-3.59867100,0.49212600,0.00116880
-7.01479472,1.26107300,-3.59867100,0.92273620,0.00218381
-6.93479471,1.73782000,-3.64480800,1.43024100,0.00335261
-6.85479471,2.21456700,-3.72170300,1.98388300,0.00455217
-6.77479471,2.67593500,-3.78321800,2.52214600,0.00572097
-6.69479471,3.10654500,-3.82935500,3.01427100,0.00670522
-6.61479471,3.47564000,-3.87549200,3.44488200,0.00741265
-6.53479471,3.78321800,-3.90625000,3.78321800,0.00778174
-6.45479471,4.04466000,-3.93700800,4.02928100,0.00781250
-6.37479471,4.22920700,-3.98314500,4.15231300,0.00750492
-6.29479471,4.36761800,-4.04466000,4.18307100,0.00688976
-6.21479470,4.44451300,-4.10617600,4.13693400,0.00605930
-6.13479470,4.49065000,-4.18307100,4.01390200,0.00504429
-6.05479470,4.49065000,-4.25996500,3.89087100,0.00393701
-5.97479470,4.44451300,-4.29072300,3.76783900,0.00286048
-5.89479470,4.36761800,-4.25996500,3.69094500,0.00187623
-5.81479470,4.22920700,-4.18307100,3.70632400,0.00101501
-5.73479470,4.04466000,-4.02928100,3.81397600,0.00030758
-5.65479470,3.78321800,-3.79859700,4.06003900,-0.00027682
-5.57479470,3.47564000,-3.52177600,4.39837600,-0.00070743
-5.49479469,3.10654500,-3.19881900,4.85974400,-0.00107653
-5.41479469,2.67593500,-2.84510300,5.36724900,-0.00135335
-5.33479469,2.21456700,-2.44525100,5.92089000,-0.00156865
-5.25479469,1.73782000,-2.04539800,6.47453200,-0.00169168
-5.17479469,1.26107300,-1.61478800,6.96665800,-0.00169168
-5.09479469,0.83046260,-1.16879900,7.38188900,-0.00153789
-5.01479469,0.43061020,-0.70743110,7.67408900,-0.00113804
-4.93479469,0.12303150,-0.24606300,7.82787800,-0.00046137
-4.85479469,-0.09227362,0.24606300,7.82787800,0.00055364
-4.77479469,-0.21530510,0.75356790,7.67408900,0.00187623
-4.69479468,-0.24606300,1.26107300,7.38188900,0.00353716
-4.61479468,-0.18454720,1.76857800,6.96665800,0.00541339
-4.53479468,-0.06151574,2.27608300,6.47453200,0.00741265
-4.45479468,0.06151574,2.75283000,5.92089000,0.00947343
-4.37479468,0.18454720,3.18344000,5.38262700,0.01138041
-4.29479468,0.24606300,3.53715500,4.85974400,0.01307210
-4.21479468,0.23068400,3.78321800,4.41375400,0.01442544
-4.13479468,0.10765260,3.90625000,4.06003900,0.01537894
-4.05479468,-0.13841040,3.89087100,3.81397600,0.01587106
-3.97479467,-0.47674700,3.73708200,3.66018700,0.01596334
-3.89479467,-0.92273620,3.42950300,3.59867100,0.01562500
-3.81479467,-1.43024100,3.01427100,3.59867100,0.01494833
-3.73479467,-1.96850400,2.52214600,3.64480800,0.01402559
-3.65479467,-2.52214600,1.96850400,3.72170300,0.01294907
-3.57479467,-3.02965000,1.43024100,3.78321800,0.01178027
-3.49479467,-3.44488200,0.92273620,3.84473400,0.01061147
-3.41479467,-3.75246000,0.47674700,3.89087100,0.00944267
-3.33479467,-3.90625000,0.13841040,3.92162900,0.00836614
-3.25479466,-3.89087100,-0.10765260,3.92162900,0.00732037
-3.17479466,-3.70632400,-0.23068400,3.89087100,0.00633612
-3.09479466,-3.35260800,-0.24606300,3.84473400,0.00532111
-3.01479466,-2.86048200,-0.18454720,3.78321800,0.00433686
-2.93479466,-2.27608300,-0.06151574,3.72170300,0.00335261
-2.85479466,-1.67630400,0.06151574,3.64480800,0.00239911
-2.77479466,-1.07652500,0.18454720,3.59867100,0.00153789
-2.69479466,-0.58439960,0.24606300,3.59867100,0.00079970
-2.61479466,-0.21530510,0.23068400,3.66018700,0.00027682
-2.53479466,-0.01537894,0.10765260,3.81397600,0.00003076
-2.45479465,-0.03075787,-0.13841040,4.06003900,0.00006152
-2.37479465,-0.26144190,-0.47674700,4.41375400,0.00039985
-2.29479465,-0.67667320,-0.92273620,4.85974400,0.00101501
-2.21479465,-1.24569400,-1.43024100,5.38262700,0.00184547
-2.13479465,-1.90698800,-1.96850400,5.92089000,0.00286048
-2.05479465,-2.58366100,-2.52214600,6.47453200,0.00396777
-1.97479465,-3.19881900,-3.02965000,6.96665800,0.00501353
-1.89479465,-3.69094500,-3.44488200,7.39726800,0.00602854
-1.81479465,-3.96776600,-3.75246000,7.70484700,0.00688976
-1.73479464,-3.99852300,-3.90625000,7.84325700,0.00756644
-1.65479464,-3.76783900,-3.89087100,7.78174200,0.00805856
-1.57479464,-3.26033400,-3.70632400,7.50492100,0.00839690
-1.49479464,-2.52214600,-3.35260800,6.99741600,0.00855069
-1.41479464,-1.59940900,-2.86048200,6.32074300,0.00858145
-1.33479464,-0.53826270,-2.27608300,5.52103800,0.00851993
-1.25479464,0.53826270,-1.67630400,4.70595500,0.00836614
-1.17479464,1.58403000,-1.09190400,4.13693400,0.00821235
-1.09479464,2.50676700,-0.58439960,3.98314500,0.00805856
-1.01479463,3.24495600,-0.23068400,4.07541800,0.00793553
-0.93479463,3.75246000,-0.03075787,4.07541800,0.00787402
-0.85479463,4.02928100,-0.01537894,3.59867100,0.00784326
-0.77479463,4.06003900,-0.16916830,2.29146100,0.00784326
-0.69479463,3.87549200,-0.49212600,-0.01537894,0.00787402
-0.61479463,3.53715500,-0.92273620,-3.18344000,0.00787402
-0.53479463,3.06040800,-1.43024100,-6.68983700,0.00790477
-0.45479463,2.52214600,-1.98388300,-9.64259300,0.00790477
-0.37479463,1.92236700,-2.50676700,-10.68836000,0.00790477
-0.29479463,1.32258800,-3.01427100,-8.36614100,0.00787402
-0.21479462,0.75356790,-3.44488200,-1.43024100,0.00784326
-0.13479462,0.23068400,-3.78321800,11.08821000,0.00784326
-0.05479462,-0.21530510,-4.02928100,29.66597000,0.00784326
0.02520538,-0.55364170,-4.19845000,54.17999000,0.00784326
0.10520538,-0.79970470,-4.27534400,83.92285000,0.00787402
0.18520538,-0.96887300,-4.29072300,117.61810000,0.00790477
0.26520538,-1.09190400,-4.25996500,153.52790000,0.00790477
0.34520538,-1.23031500,-4.18307100,189.65300000,0.00790477
0.42520538,-1.53789400,-4.10617600,223.94810000,0.00790477
0.50520539,-2.10691400,-4.02928100,254.55210000,0.00787402
0.58520539,-2.84510300,-3.96776600,279.91200000,0.00784326
0.66520539,-3.61405000,-3.93700800,298.96650000,0.00784326
0.74520539,-4.15231300,-3.92162900,311.20810000,0.00784326
0.82520539,-4.32148100,-3.92162900,316.71380000,0.00784326
0.90520539,-3.98314500,-3.93700800,316.03710000,0.00787402
0.98520539,-3.19881900,-3.93700800,310.05470000,0.00790477
1.06520539,-2.21456700,-3.95238700,299.90460000,0.00790477
1.14520539,-1.49175700,-3.95238700,286.70950000,0.00790477
1.22520539,-1.84547200,-3.95238700,271.51510000,0.00787402
1.30520540,-4.10617600,-3.96776600,255.10580000,0.00778174
1.38520540,-8.59682500,-3.98314500,238.05060000,0.00772023
1.46520540,-15.40969000,-3.95238700,220.62620000,0.00775098
1.54520540,-24.29872000,-3.86011300,202.90970000,0.00799705
1.62520540,-34.89481000,-3.67556500,184.77790000,0.00845842
1.70520540,-46.67507000,-3.36798700,166.15400000,0.00919661
1.78520540,-59.23966000,-2.96813500,146.96110000,0.01015010
1.86520540,-72.34252000,-2.53752400,127.27610000,0.01122662
1.94520540,-85.98363000,-2.12229300,107.31420000,0.01214936
2.02520541,-100.77820000,-1.96850400,87.49077000,0.01254921
2.10520541,-117.40280000,-2.22994600,68.35937000,0.01202633
2.18520541,-136.19590000,-2.81434500,50.51981000,0.01067298
2.26520541,-157.29580000,-3.56791300,34.57185000,0.00882751
2.34520541,-180.54870000,-4.22920700,20.96149000,0.00688976
2.42520541,-205.58560000,-4.56754400,9.93479300,0.00535187
2.50520541,-231.85280000,-4.45989200,1.50713600,0.00442913
2.58520541,-258.62760000,-3.92162900,-4.55216500,0.00409080
2.66520541,-285.23310000,-3.24495600,-8.67371900,0.00393701
2.74520542,-311.05440000,-2.93737700,-11.54958000,0.00307579
2.82520542,-335.87600000,-3.93700800,-13.85642000,-0.00012303
2.90520542,-359.55950000,-7.16658400,-15.84030000,-0.00722810
2.98520542,-381.81280000,-13.13361000,-17.62426000,-0.01919291
3.06520542,-402.32830000,-21.97650000,-19.06988000,-0.03647884
3.14520542,-420.82920000,-33.58760000,-19.99262000,-0.05890133
3.22520542,-437.03860000,-47.53629000,-20.17716000,-0.08590674
3.30520542,-450.74120000,-63.26894000,-19.43897000,-0.11651080
3.38520542,-461.81410000,-80.21653000,-17.74729000,-0.14957550
3.46520542,-470.25710000,-97.91769000,-15.19439000,-0.18408590
3.54520543,-476.13190000,-116.12630000,-12.13398000,-0.21927290
3.62520543,-479.74590000,-135.10390000,-8.98129900,-0.25495200
3.70520543,-481.48370000,-155.31190000,-5.96702700,-0.29127710
3.78520543,-481.51450000,-176.85780000,-3.26033400,-0.32815580
3.86520543,-479.93050000,-199.83390000,-0.96887300,-0.36555730
3.94520543,-476.73160000,-224.08650000,0.86122040,-0.40329720
4.02520543,-471.84110000,-249.32330000,2.30684000,-0.44103710
4.10520543,-465.16670000,-275.06760000,3.41412400,-0.47828490
4.18520543,-456.61600000,-300.76580000,4.27534400,-0.51439470
4.26520544,-446.17370000,-325.75660000,4.99815400,-0.54856670
4.34520544,-433.83980000,-349.45560000,5.61331200,-0.57987820
4.42520544,-419.84500000,-371.52440000,6.16695300,-0.60765250
4.50520544,-404.65060000,-391.70150000,6.68983700,-0.63121310
4.58520544,-388.77950000,-409.58720000,7.18196300,-0.64972930
4.66520544,-372.73930000,-424.87390000,7.64333200,-0.66261680
4.74520544,-356.92970000,-437.31540000,8.02780400,-0.66944510
4.82520544,-341.62770000,-446.74270000,8.33538300,-0.67002950
4.90520544,-326.89470000,-453.07880000,8.50455100,-0.66455460
4.98520545,-312.62300000,-456.36990000,8.56606700,-0.65342030
5.06520545,-298.53590000,-456.73900000,8.51993000,-0.63736470
5.14520545,-284.06430000,-454.43220000,8.38152000,-0.61721830
5.22520545,-268.80840000,-449.80310000,8.21235200,-0.59402680
5.30520545,-252.79900000,-443.19020000,8.05856200,-0.56883610
5.38520545,-236.34350000,-434.91630000,7.93553100,-0.54247660
5.46520545,-219.88800000,-425.11990000,7.85863600,-0.51559420
5.54520545,-203.90930000,-413.92410000,7.82787800,-0.48855810
5.62520545,-188.82260000,-401.37480000,7.84325700,-0.46149110
5.70520545,-174.90460000,-387.44150000,7.85863600,-0.43442420
5.78520546,-162.17090000,-372.15490000,7.88939400,-0.40711120
5.86520546,-150.43680000,-355.53020000,7.90477300,-0.37949060
5.94520546,-139.10250000,-337.61380000,7.90477300,-0.35128570
6.02520546,-127.59900000,-318.59000000,7.88939400,-0.32249630
6.10520546,-115.81880000,-298.98190000,7.85863600,-0.29376850
6.18520546,-103.88470000,-279.32760000,7.84325700,-0.26587100
6.26520546,-92.05831000,-260.22700000,7.84325700,-0.23969610
6.34520546,-80.67790000,-242.14140000,7.85863600,-0.21601260
6.42520546,-70.09719000,-225.39370000,7.90477300,-0.19540480
6.50520547,-60.53149000,-210.07630000,7.96628900,-0.17799580
6.58520547,-52.07308000,-196.06610000,8.05856200,-0.16363190
6.66520547,-44.66043000,-183.05550000,8.13545700,-0.15169780
6.74520547,-37.90908000,-170.42940000,8.21235200,-0.14102490
6.82520547,-31.44992000,-157.68020000,8.22773100,-0.13059790
6.90520547,-25.23683000,-144.80810000,8.19697300,-0.12004800
6.98520547,-19.40822000,-131.99740000,8.10469900,-0.10946730
7.06520547,-14.13324000,-119.63270000,7.95091000,-0.09910187
7.14520547,-9.62721400,-108.12930000,7.72022600,-0.08941314
7.22520548,-6.07468000,-97.87155000,7.45878400,-0.08092397
7.30520548,-3.59867100,-89.04404000,7.13582600,-0.07394193
7.38520548,-2.16843000,-81.69291000,6.78211100,-0.06855930
7.46520548,-1.64554600,-75.60284000,6.39763700,-0.06459153
7.54520548,-1.70706200,-70.20484000,5.99778500,-0.06145423
7.62520548,-2.03002000,-64.94524000,5.55179600,-0.05843996
7.70520548,-2.46063000,-59.65489000,5.10580700,-0.05533342
7.78520548,-2.96813500,-54.41068000,4.62906000,-0.05207308
7.86520548,-3.56791300,-49.41252000,4.15231300,-0.04872047
7.94520548,-4.32148100,-44.89111000,3.69094500,-0.04546014
8.02520549,-5.32111200,-41.12328000,3.22957700,-0.04247662
8.10520549,-6.61294300,-38.27817000,2.76820900,-0.03992372
8.18520549,-8.21235200,-36.35580000,2.33759800,-0.03789370
8.26520549,-10.05782000,-35.21776000,1.90698800,-0.03635581
8.34520549,-12.02633000,-34.46420000,1.50713600,-0.03512549
8.42520549,-13.99483000,-33.60298000,1.10728300,-0.03398745
8.50520549,-15.85568000,-32.40342000,0.73818890,-0.03297244
8.58520549,-17.54737000,-30.75787000,0.41523130,-0.03211122
8.66520549,-18.99298000,-28.65096000,0.12303150,-0.03152682
8.74520550,-20.16179000,-26.19033000,-0.10765260,-0.03134227
8.82520550,-21.02301000,-23.49901000,-0.29219980,-0.03164985
8.90520550,-21.57665000,-20.74619000,-0.43061020,-0.03244956
8.98520550,-21.88423000,-18.02411000,-0.50750490,-0.03371063
9.06520550,-22.00726000,-15.39431000,-0.53826270,-0.03531004
9.14520550,-22.00726000,-12.81065000,-0.53826270,-0.03690945
9.22520550,-22.00726000,-10.13472000,-0.50750490,-0.03832431
9.30520550,-22.13029000,-7.35113100,-0.43061020,-0.03930856
9.38520550,-22.46863000,-4.47527100,-0.29219980,-0.03976993
9.46520551,-23.09916000,-1.50713600,-0.10765260,-0.03955463
9.54520551,-24.05266000,1.50713600,0.12303150,-0.03872416
9.62520551,-25.29835000,4.49065000,0.41523130,-0.03724778
9.70520551,-26.80548000,7.39726800,0.73818890,-0.03527928
9.78520551,-28.46641000,10.18086000,1.10728300,-0.03284941
9.86520551,-30.17347000,12.79527000,1.50713600,-0.03017347
9.94520551,-31.80364000,15.24053000,1.90698800,-0.02731299
10.02520551,-33.23388000,17.53199000,2.33759800,-0.02439099
10.10520551,-34.32578000,19.59276000,2.76820900,-0.02156127
10.18520551,-35.03321000,21.39210000,3.21419800,-0.01891609
10.26520552,-35.32542000,22.89923000,3.67556500,-0.01667077
10.34520552,-35.18700000,24.08341000,4.16769200,-0.01482530
10.42520552,-34.64874000,24.91388000,4.67519700,-0.01350271
10.50520552,-33.77214000,25.42138000,5.19808000,-0.01264149
10.58520552,-32.60334000,25.59055000,5.72096400,-0.01214936
10.66520552,-31.18848000,25.45214000,6.22846900,-0.01193406
10.74520552,-29.55832000,25.05229000,6.70521600,-0.01178027
10.82520552,-27.69746000,24.37561000,7.13582600,-0.01153420
10.90520552,-25.60593000,23.39136000,7.47416300,-0.01098056
10.98520553,-23.32985000,22.11491000,7.72022600,-0.01005782
11.06520553,-20.88459000,20.51550000,7.82787800,-0.00867372
11.14520553,-18.30093000,18.63927000,7.81250000,-0.00688976
11.22520553,-15.62500000,16.47084000,7.65871000,-0.00473671
11.30520553,-12.88755000,14.07173000,7.36651000,-0.00224533
11.38520553,-10.11934000,11.45731000,6.96665800,0.00039985
11.46520553,-7.32037400,8.70447700,6.47453200,0.00313730
11.54520553,-4.53678600,5.84399600,5.92089000,0.00584400
11.62520553,-1.72244100,2.89124000,5.38262700,0.00848917
11.70520553,1.09190400,-0.13841040,4.87512300,0.01098056
