Time,Channel A,Channel B,Channel C,Channel D
(ns),(mV),(mV),(mV),(V)

-15.27741983,0.24606300,-3.92162900,3.78321800,0.00784326
-15.19741982,0.70743110,-3.92162900,3.44488200,0.00784326
-15.11741982,1.16879900,-3.93700800,3.01427100,0.00787402
-15.03741982,1.61478800,-3.95238700,2.50676700,0.00790477
-14.95741982,2.04539800,-3.95238700,1.98388300,0.00790477
-14.87741982,2.44525100,-3.95238700,1.43024100,0.00790477
-14.79741982,2.82972400,-3.93700800,0.92273620,0.00790477
-14.71741982,3.19881900,-3.93700800,0.49212600,0.00787402
-14.63741982,3.52177600,-3.92162900,0.18454720,0.00784326
-14.55741982,3.79859700,-3.92162900,0.01537894,0.00784326
-14.47741981,4.02928100,-3.93700800,0.01537894,0.00784326
-14.39741981,4.22920700,-3.96776600,0.18454720,0.00784326
-14.31741981,4.36761800,-4.02928100,0.49212600,0.00787402
-14.23741981,4.44451300,-4.10617600,0.92273620,0.00790477
-14.15741981,4.49065000,-4.18307100,1.43024100,0.00790477
-14.07741981,4.49065000,-4.25996500,1.98388300,0.00790477
-13.99741981,4.44451300,-4.29072300,2.50676700,0.00790477
-13.91741981,4.36761800,-4.27534400,3.01427100,0.00787402
-13.83741981,4.22920700,-4.18307100,3.44488200,0.00784326
-13.75741980,4.02928100,-4.02928100,3.78321800,0.00784326
-13.67741980,3.79859700,-3.79859700,4.02928100,0.00784326
-13.59741980,3.52177600,-3.49101900,4.19845000,0.00784326
-13.51741980,3.19881900,-3.10654500,4.27534400,0.00787402
-13.43741980,2.82972400,-2.67593500,4.29072300,0.00790477
-13.35741980,2.44525100,-2.21456700,4.25996500,0.00790477
-13.27741980,2.04539800,-1.73782000,4.18307100,0.00790477
-13.19741980,1.61478800,-1.27645200,4.10617600,0.00787402
-13.11741980,1.16879900,-0.83046260,4.02928100,0.00787402
-13.03741980,0.70743110,-0.46136810,3.96776600,0.00784326
-12.95741979,0.24606300,-0.13841040,3.93700800,0.00784326
-12.87741979,-0.24606300,0.12303150,3.92162900,0.00787402
-12.79741979,-0.75356790,0.30757870,3.92162900,0.00793553
-12.71741979,-1.26107300,0.43061020,3.93700800,0.00805856
-12.63741979,-1.76857800,0.50750490,3.93700800,0.00821235
-12.55741979,-2.27608300,0.53826270,3.95238700,0.00836614
-12.47741979,-2.75283000,0.53826270,3.95238700,0.00851993
-12.39741979,-3.18344000,0.50750490,3.95238700,0.00858145
-12.31741979,-3.53715500,0.43061020,3.93700800,0.00855069
-12.23741978,-3.78321800,0.30757870,3.92162900,0.00839690
-12.15741978,-3.90625000,0.12303150,3.92162900,0.00805856
-12.07741978,-3.89087100,-0.13841040,3.92162900,0.00756644
-11.99741978,-3.73708200,-0.49212600,3.92162900,0.00688976
-11.91741978,-3.42950300,-0.93811510,3.93700800,0.00602854
-11.83741978,-3.01427100,-1.43024100,3.95238700,0.00501353
-11.75741978,-2.52214600,-1.96850400,3.95238700,0.00396777
-11.67741978,-1.96850400,-2.52214600,3.95238700,0.00286048
-11.59741978,-1.43024100,-3.01427100,3.95238700,0.00184547
-11.51741977,-0.93811510,-3.44488200,3.93700800,0.00098425
-11.43741977,-0.49212600,-3.73708200,3.92162900,0.00033834
-11.35741977,-0.13841040,-3.90625000,3.92162900,0.00003076
-11.27741977,0.12303150,-3.90625000,3.92162900,0.00006152
-11.19741977,0.30757870,-3.73708200,3.92162900,0.00046137
-11.11741977,0.43061020,-3.44488200,3.93700800,0.00116880
-11.03741977,0.50750490,-3.01427100,3.95238700,0.00218381
-10.95741977,0.53826270,-2.52214600,3.95238700,0.00335261
-10.87741977,0.53826270,-1.96850400,3.95238700,0.00455217
-10.79741977,0.50750490,-1.43024100,3.95238700,0.00572097
-10.71741976,0.43061020,-0.92273620,3.93700800,0.00670522
-10.63741976,0.30757870,-0.49212600,3.92162900,0.00741265
-10.55741976,0.12303150,-0.13841040,3.92162900,0.00778174
-10.47741976,-0.13841040,0.10765260,3.92162900,0.00781250
-10.39741976,-0.46136810,0.27682080,3.92162900,0.00750492
-10.31741976,-0.83046260,0.33833660,3.93700800,0.00688976
-10.23741976,-1.27645200,0.35371550,3.95238700,0.00605930
-10.15741976,-1.73782000,0.30757870,3.95238700,0.00504429
-10.07741976,-2.21456700,0.23068400,3.95238700,0.00393701
-9.99741975,-2.67593500,0.16916830,3.95238700,0.00286048
-9.91741975,-3.10654500,0.09227362,3.93700800,0.00187623
-9.83741975,-3.47564000,0.04613681,3.92162900,0.00098425
-9.75741975,-3.78321800,0.01537894,3.92162900,0.00027682
-9.67741975,-4.04466000,0.00000000,3.92162900,-0.00024606
-9.59741975,-4.22920700,-0.01537894,3.92162900,-0.00061516
-9.51741975,-4.36761800,0.00000000,3.93700800,-0.00086122
-9.43741975,-4.44451300,0.00000000,3.95238700,-0.00101501
-9.35741975,-4.49065000,0.00000000,3.95238700,-0.00107653
-9.27741974,-4.49065000,0.00000000,3.95238700,-0.00107653
-9.19741974,-4.44451300,0.00000000,3.95238700,-0.00101501
-9.11741974,-4.36761800,0.00000000,3.93700800,-0.00086122
-9.03741974,-4.22920700,-0.01537894,3.92162900,-0.00061516
-8.95741974,-4.04466000,0.00000000,3.92162900,-0.00024606
-8.87741974,-3.78321800,0.01537894,3.92162900,0.00027682
-8.79741974,-3.47564000,0.04613681,3.92162900,0.00098425
-8.71741974,-3.10654500,0.09227362,3.93700800,0.00187623
-8.63741974,-2.67593500,0.16916830,3.95238700,0.00286048
-8.55741974,-2.21456700,0.23068400,3.95238700,0.00393701
-8.47741973,-1.73782000,0.30757870,3.95238700,0.00504429
-8.39741973,-1.26107300,0.35371550,3.95238700,0.00605930
-8.31741973,-0.83046260,0.33833660,3.93700800,0.00688976
-8.23741973,-0.44598910,0.27682080,3.92162900,0.00750492
-8.15741973,-0.12303150,0.10765260,3.92162900,0.00781250
-8.07741973,0.10765260,-0.13841040,3.92162900,0.00778174
-7.99741973,0.26144190,-0.49212600,3.92162900,0.00741265
-7.91741973,0.33833660,-0.92273620,3.93700800,0.00670522
-7.83741973,0.33833660,-1.43024100,3.95238700,0.00572097
-7.75741972,0.30757870,-1.96850400,3.95238700,0.00455217
-7.67741972,0.23068400,-2.52214600,3.95238700,0.00335261
-7.59741972,0.16916830,-3.02965000,3.95238700,0.00218381
-7.51741972,0.09227362,-3.44488200,3.93700800,0.00116880
-7.43741972,0.04613681,-3.75246000,3.92162900,0.00046137
-7.35741972,0.01537894,-3.90625000,3.92162900,0.00006152
-7.27741972,0.00000000,-3.89087100,3.92162900,0.00003076
-7.19741972,-0.01537894,-3.70632400,3.92162900,0.00033834
-7.11741972,0.00000000,-3.35260800,3.93700800,0.00098425
-7.03741972,0.00000000,-2.86048200,3.95238700,0.00184547
-6.95741971,0.00000000,-2.27608300,3.95238700,0.00286048
-6.87741971,0.00000000,-1.67630400,3.95238700,0.00396777
-6.79741971,0.00000000,-1.09190400,3.95238700,0.00501353
-6.71741971,0.00000000,-0.58439960,3.93700800,0.00602854
-6.63741971,-0.01537894,-0.23068400,3.92162900,0.00688976
-6.55741971,0.00000000,-0.03075787,3.92162900,0.00756644
-6.47741971,0.01537894,-0.01537894,3.92162900,0.00805856
-6.39741971,0.04613681,-0.16916830,3.92162900,0.00839690
-6.31741971,0.09227362,-0.49212600,3.93700800,0.00855069
-6.23741970,0.16916830,-0.92273620,3.95238700,0.00858145
-6.15741970,0.23068400,-1.43024100,3.95238700,0.00851993
-6.07741970,0.30757870,-1.98388300,3.95238700,0.00836614
-5.99741970,0.35371550,-2.50676700,3.95238700,0.00821235
-5.91741970,0.33833660,-2.99889300,3.93700800,0.00805856
-5.83741970,0.27682080,-3.42950300,3.92162900,0.00793553
-5.75741970,0.10765260,-3.78321800,3.92162900,0.00787402
-5.67741970,-0.13841040,-4.04466000,3.92162900,0.00784326
-5.59741970,-0.49212600,-4.24458600,3.92162900,0.00784326
-5.51741969,-0.92273620,-4.36761800,3.93700800,0.00787402
-5.43741969,-1.43024100,-4.45989200,3.95238700,0.00787402
-5.35741969,-1.96850400,-4.49065000,3.95238700,0.00790477
-5.27741969,-2.52214600,-4.49065000,3.95238700,0.00790477
-5.19741969,-3.01427100,-4.44451300,3.95238700,0.00787402
-5.11741969,-3.44488200,-4.36761800,3.93700800,0.00787402
-5.03741969,-3.73708200,-4.22920700,3.92162900,0.00784326
-4.95741969,-3.90625000,-4.04466000,3.92162900,0.00784326
-4.87741969,-3.90625000,-3.78321800,3.92162900,0.00787402
-4.79741969,-3.73708200,-3.47564000,3.92162900,0.00793553
-4.71741968,-3.44488200,-3.10654500,3.93700800,0.00805856
-4.63741968,-3.01427100,-2.67593500,3.95238700,0.00821235
-4.55741968,-2.52214600,-2.21456700,3.95238700,0.00836614
-4.47741968,-1.96850400,-1.73782000,3.95238700,0.00851993
-4.39741968,-1.43024100,-1.27645200,3.95238700,0.00858145
-4.31741968,-0.93811510,-0.83046260,3.93700800,0.00855069
-4.23741968,-0.49212600,-0.46136810,3.92162900,0.00839690
-4.15741968,-0.13841040,-0.13841040,3.92162900,0.00805856
-4.07741968,0.12303150,0.12303150,3.92162900,0.00756644
-3.99741967,0.30757870,0.30757870,3.92162900,0.00688976
-3.91741967,0.43061020,0.43061020,3.93700800,0.00602854
-3.83741967,0.50750490,0.50750490,3.95238700,0.00501353
-3.75741967,0.53826270,0.53826270,3.95238700,0.00396777
-3.67741967,0.53826270,0.53826270,3.95238700,0.00286048
-3.59741967,0.50750490,0.50750490,3.95238700,0.00184547
-3.51741967,0.43061020,0.43061020,3.93700800,0.00098425
-3.43741967,0.30757870,0.30757870,3.93700800,0.00036909
-3.35741967,0.12303150,0.12303150,3.92162900,0.00003076
-3.27741966,-0.13841040,-0.13841040,3.90625000,0.00003076
-3.19741966,-0.46136810,-0.49212600,3.89087100,0.00036909
-3.11741966,-0.83046260,-0.93811510,3.84473400,0.00098425
-3.03741966,-1.27645200,-1.43024100,3.78321800,0.00184547
-2.95741966,-1.73782000,-1.96850400,3.72170300,0.00286048
-2.87741966,-2.21456700,-2.52214600,3.64480800,0.00396777
-2.79741966,-2.67593500,-3.02965000,3.59867100,0.00501353
-2.71741966,-3.10654500,-3.44488200,3.59867100,0.00602854
-2.63741966,-3.49101900,-3.75246000,3.66018700,0.00688976
-2.55741966,-3.79859700,-3.90625000,3.81397600,0.00756644
-2.47741965,-4.02928100,-3.89087100,4.06003900,0.00805856
-2.39741965,-4.18307100,-3.70632400,4.41375400,0.00839690
-2.31741965,-4.27534400,-3.35260800,4.85974400,0.00855069
-2.23741965,-4.29072300,-2.86048200,5.38262700,0.00858145
-2.15741965,-4.25996500,-2.27608300,5.92089000,0.00851993
-2.07741965,-4.18307100,-1.67630400,6.47453200,0.00836614
-1.99741965,-4.10617600,-1.09190400,6.96665800,0.00821235
-1.91741965,-4.02928100,-0.58439960,7.39726800,0.00805856
-1.83741965,-3.96776600,-0.23068400,7.70484700,0.00793553
-1.75741964,-3.92162900,-0.03075787,7.84325700,0.00787402
-1.67741964,-3.92162900,-0.01537894,7.79712100,0.00784326
-1.59741964,-3.96776600,-0.16916830,7.53567900,0.00784326
-1.51741964,-4.02928100,-0.49212600,7.08968900,0.00787402
-1.43741964,-4.10617600,-0.92273620,6.47453200,0.00787402
-1.35741964,-4.18307100,-1.43024100,5.76710100,0.00790477
-1.27741964,-4.25996500,-1.98388300,5.01353300,0.00790477
-1.19741964,-4.29072300,-2.50676700,4.45989200,0.00790477
-1.11741964,-4.27534400,-3.01427100,4.25996500,0.00787402
-1.03741963,-4.19845000,-3.44488200,4.22920700,0.00784326
-0.95741963,-4.02928100,-3.78321800,4.12155500,0.00784326
-0.87741963,-3.78321800,-4.02928100,3.58329200,0.00784326
-0.79741963,-3.44488200,-4.19845000,2.32221900,0.00784326
-0.71741963,-3.01427100,-4.27534400,0.19992620,0.00787402
-0.63741963,-2.50676700,-4.29072300,-2.66055600,0.00790477
-0.55741963,-1.98388300,-4.25996500,-5.81323800,0.00790477
-0.47741963,-1.43024100,-4.18307100,-8.50455100,0.00790477
-0.39741963,-0.92273620,-4.10617600,-9.53494100,0.00790477
-0.31741963,-0.50750490,-4.02928100,-7.65871000,0.00787402
-0.23741962,-0.19992620,-3.96776600,-1.84547200,0.00784326
-0.15741962,-0.03075787,-3.93700800,8.61220400,0.00784326
-0.07741962,0.00000000,-3.92162900,24.00652000,0.00784326
0.00258038,-0.09227362,-3.92162900,44.19906000,0.00784326
0.08258038,-0.30757870,-3.93700800,68.52853000,0.00787402
0.16258038,-0.59977850,-3.93700800,95.96456000,0.00790477
0.24258038,-0.95349410,-3.95238700,125.18450000,0.00790477
0.32258038,-1.36872500,-3.95238700,154.71210000,0.00790477
0.40258038,-1.89160900,-3.95238700,183.16310000,0.00787402
0.48258039,-2.55290300,-3.93700800,209.27660000,0.00787402
0.56258039,-3.24495600,-3.92162900,232.09890000,0.00784326
0.64258039,-3.76783900,-3.92162900,250.99960000,0.00784326
0.72258039,-3.96776600,-3.92162900,265.70190000,0.00787402
0.80258039,-3.66018700,-3.92162900,276.28260000,0.00793553
0.88258039,-2.79896600,-3.93700800,283.01860000,0.00805856
0.96258039,-1.47637800,-3.95238700,286.37120000,0.00821235
1.04258039,0.07689468,-3.95238700,286.80180000,0.00836614
1.12258039,1.41486200,-3.95238700,284.69490000,0.00851993
1.20258039,1.76857800,-3.95238700,280.31190000,0.00855069
1.28258040,0.41523130,-3.96776600,273.71430000,0.00848917
1.36258040,-2.96813500,-3.98314500,264.87140000,0.00830463
1.44258040,-8.36614100,-3.95238700,253.66020000,0.00799705
1.52258040,-15.56348000,-3.87549200,239.92680000,0.00765871
1.60258040,-24.16031000,-3.70632400,223.62510000,0.00732037
1.68258040,-33.69525000,-3.46026100,204.83200000,0.00698204
1.76258040,-43.82997000,-3.13730300,183.87060000,0.00664370
1.84258040,-54.42606000,-2.76820900,161.24810000,0.00633612
1.92258040,-65.62193000,-2.42987200,137.70300000,0.00590551
2.00258041,-78.15575000,-2.30684000,114.05020000,0.00513657
2.08258041,-92.85802000,-2.53752400,91.24323000,0.00387549
2.16258041,-110.12860000,-3.04502900,70.12794000,0.00224533
2.24258041,-130.16730000,-3.66018700,51.42716000,0.00067667
2.32258041,-152.86660000,-4.12155500,35.61762000,-0.00049213
2.40258041,-177.84200000,-4.24458600,22.89923000,-0.00089198
2.48258041,-204.46300000,-3.90625000,13.13361000,-0.00027682
2.56258041,-231.96050000,-3.15268200,5.98240600,0.00116880
2.64258041,-259.59650000,-2.22994600,0.87659940,0.00301427
2.72258042,-286.72490000,-1.63016700,-2.96813500,0.00433686
2.80258042,-313.06900000,-2.29146100,-6.22846900,0.00356791
2.88258042,-338.52110000,-5.07504900,-9.21198300,-0.00079970
2.96258042,-362.75830000,-10.42692000,-12.04171000,-0.00953494
3.04258042,-385.47300000,-18.51624000,-14.59461000,-0.02297613
3.12258042,-406.35760000,-29.15846000,-16.62463000,-0.04084646
3.20258042,-425.13530000,-41.96912000,-17.91646000,-0.06250000
3.28258042,-441.56000000,-56.40993000,-18.23942000,-0.08704478
3.36258042,-455.47800000,-71.95804000,-17.53199000,-0.11358880
3.44258042,-466.81220000,-88.21358000,-15.87106000,-0.14133240
3.52258043,-475.60900000,-104.97660000,-13.62574000,-0.16999880
3.60258043,-482.16040000,-122.63160000,-11.21124000,-0.19989540
3.68258043,-486.75870000,-141.64000000,-8.85826700,-0.23169910
3.76258043,-489.52690000,-162.21700000,-6.67445900,-0.26577880
3.84258043,-490.49580000,-184.42420000,-4.76747000,-0.30238070
3.92258043,-489.61920000,-208.15390000,-3.13730300,-0.34150470
4.00258043,-486.78950000,-233.11390000,-1.70706200,-0.38278170
4.08258043,-481.88360000,-258.78140000,-0.43061020,-0.42550440
4.16258043,-474.82460000,-284.57180000,0.75356790,-0.46868850
4.24258044,-465.61270000,-309.82400000,1.93774600,-0.51104210
4.32258044,-454.30910000,-333.93820000,3.09116600,-0.55124260
4.40258044,-441.19090000,-356.56060000,4.22920700,-0.58799830
4.48258044,-426.78090000,-377.42980000,5.32111200,-0.62026330
4.56258044,-411.57110000,-396.19210000,6.38225800,-0.64693030
4.64258044,-396.06910000,-412.52460000,7.38188900,-0.66713830
4.72258044,-380.62870000,-426.18110000,8.28924700,-0.68039490
4.80258044,-365.46500000,-436.97710000,9.08895100,-0.68651570
4.88258044,-350.65510000,-444.85110000,9.78100300,-0.68574680
4.96258045,-336.04510000,-449.78780000,10.35002000,-0.67867250
5.04258045,-321.41980000,-451.91000000,10.79601000,-0.66606180
5.12258045,-306.27150000,-451.37180000,11.13435000,-0.64892960
5.20258045,-290.27740000,-448.48050000,11.39579000,-0.62832180
5.28258045,-273.57590000,-443.57460000,11.59572000,-0.60525350
5.36258045,-256.52060000,-436.85410000,11.71875000,-0.58049330
5.44258045,-239.63460000,-428.44180000,11.76489000,-0.55459520
5.52258045,-223.44060000,-418.39940000,11.73413000,-0.52780510
5.60258045,-208.35380000,-406.72670000,11.61110000,-0.50018450
5.68258045,-194.60510000,-393.45470000,11.39579000,-0.47173350
5.76258046,-182.19420000,-378.56790000,11.07283000,-0.44232900
5.84258046,-170.84460000,-362.20470000,10.65760000,-0.41197100
5.92258046,-159.84870000,-344.41130000,10.18086000,-0.38062870
6.00258046,-148.54510000,-325.52590000,9.67335100,-0.34857900
6.08258046,-136.74950000,-306.07160000,9.13508800,-0.31659080
6.16258046,-124.50790000,-286.67870000,8.59682500,-0.28561760
6.24258046,-112.08170000,-267.88570000,8.08932000,-0.25664370
6.32258046,-99.80930000,-250.18450000,7.59719500,-0.23053030
6.40258046,-88.05978000,-233.83670000,7.13582600,-0.20776940
6.48258047,-77.09461000,-218.90380000,6.70521600,-0.18854580
6.56258047,-67.05216000,-205.23190000,6.27460600,-0.17258240
6.64258047,-57.94783000,-192.52890000,5.85937500,-0.15920280
6.72258047,-49.42790000,-180.17960000,5.45952300,-0.14714570
6.80258047,-41.15403000,-167.72270000,5.04429100,-0.13536540
6.88258047,-33.17236000,-155.18880000,4.65981800,-0.12349290
6.96258047,-25.65207000,-142.83960000,4.32148100,-0.11149730
7.04258047,-18.79306000,-131.05930000,4.02928100,-0.09977854
7.12258047,-12.85679000,-120.27870000,3.82935500,-0.08876722
7.20258048,-8.04318300,-110.88210000,3.72170300,-0.07895546
7.28258048,-4.44451300,-103.03890000,3.70632400,-0.07077387
7.36258048,-2.04539800,-96.73351000,3.76783900,-0.06431472
7.44258048,-0.67667320,-91.71997000,3.89087100,-0.05942421
7.52258048,0.01537894,-87.33698000,4.01390200,-0.05545645
7.60258048,0.38447340,-82.96936000,4.13693400,-0.05173475
7.68258048,0.53826270,-78.43257000,4.18307100,-0.04807456
7.76258048,0.52288380,-73.71124000,4.15231300,-0.04441437
7.84258048,0.24606300,-68.97453000,4.02928100,-0.04087722
7.92258048,-0.35371550,-64.48388000,3.78321800,-0.03767839
8.00258049,-1.39948300,-60.46998000,3.44488200,-0.03503322
8.08258049,-2.95275600,-57.14812000,3.01427100,-0.03306472
8.16258049,-5.01353300,-54.54909000,2.52214600,-0.03183440
8.24258049,-7.47416300,-52.59596000,1.98388300,-0.03131152
8.32258049,-10.11934000,-50.87352000,1.43024100,-0.03115773
8.40258049,-12.73376000,-48.98191000,0.92273620,-0.03112697
8.48258049,-15.16363000,-46.70583000,0.49212600,-0.03112697
8.56258049,-17.27055000,-43.99914000,0.18454720,-0.03115773
8.64258049,-18.94685000,-40.89259000,0.01537894,-0.03128076
8.72258050,-20.14641000,-37.50923000,0.01537894,-0.03152682
8.80258050,-20.85384000,-33.98745000,0.18454720,-0.03201895
8.88258050,-21.09990000,-30.49643000,0.49212600,-0.03275714
8.96258050,-20.97687000,-27.11306000,0.92273620,-0.03377214
9.04258050,-20.57702000,-23.88349000,1.43024100,-0.03497170
9.12258050,-20.03875000,-20.66929000,1.98388300,-0.03617126
9.20258050,-19.50049000,-17.33206000,2.52214600,-0.03727854
9.28258050,-19.13140000,-13.77953000,3.01427100,-0.03813976
9.36258050,-19.03912000,-9.99630800,3.44488200,-0.03875492
9.44258051,-19.33132000,-5.98240600,3.78321800,-0.03912402
9.52258051,-19.99262000,-1.83009300,4.02928100,-0.03924705
9.60258051,-21.05376000,2.42987200,4.15231300,-0.03918553
9.68258051,-22.42249000,6.70521600,4.18307100,-0.03897022
9.76258051,-24.00652000,10.88829000,4.13693400,-0.03857037
9.84258051,-25.68282000,14.90219000,4.01390200,-0.03807825
9.92258051,-27.31299000,18.71617000,3.89087100,-0.03740158
10.00258051,-28.77399000,22.28408000,3.76783900,-0.03647884
10.08258051,-29.97355000,25.49828000,3.69094500,-0.03534080
10.16258051,-30.81939000,28.25111000,3.70632400,-0.03392594
10.24258052,-31.28075000,30.48105000,3.81397600,-0.03229577
10.32258052,-31.38841000,32.12659000,4.06003900,-0.03041954
10.40258052,-31.12697000,33.14161000,4.39837600,-0.02838952
10.48258052,-30.57333000,33.55684000,4.85974400,-0.02620571
10.56258052,-29.75824000,33.40305000,5.36724900,-0.02389887
10.64258052,-28.74323000,32.77251000,5.92089000,-0.02153051
10.72258052,-27.51292000,31.75750000,6.47453200,-0.01906988
10.80258052,-26.08268000,30.41954000,6.96665800,-0.01654774
10.88258052,-24.43713000,28.78937000,7.38188900,-0.01399483
10.96258053,-22.62241000,26.88238000,7.67408900,-0.01147269
11.04258053,-20.65391000,24.71395000,7.82787800,-0.00901206
11.12258053,-18.54700000,22.28408000,7.82787800,-0.00670522
11.20258053,-16.33243000,19.62352000,7.67408900,-0.00461368
11.28258053,-14.05635000,16.71690000,7.38188900,-0.00273745
11.36258053,-11.71875000,13.62574000,6.96665800,-0.00107653
11.44258053,-9.36577200,10.38078000,6.47453200,0.00039985
11.52258053,-6.98203700,7.04355200,5.92089000,0.00175320
11.60258053,-4.55216500,3.66018700,5.38262700,0.00310655
11.68258053,-2.10691400,0.26144190,4.85974400,0.00445989
