Time,Channel A,Channel B,Channel C,Channel D
(ns),(mV),(mV),(mV),(V)

-15.23157883,-0.03075787,-0.10765260,7.96628900,0.00805856
-15.15157882,-0.23068400,-0.23068400,8.16621500,0.00836614
-15.07157882,-0.58439960,-0.24606300,8.30462600,0.00855069
-14.99157882,-1.09190400,-0.18454720,8.39689900,0.00858145
-14.91157882,-1.67630400,-0.06151574,8.44303500,0.00851993
-14.83157882,-2.27608300,0.06151574,8.44303500,0.00836614
-14.75157882,-2.86048200,0.18454720,8.39689900,0.00821235
-14.67157882,-3.35260800,0.24606300,8.30462600,0.00805856
-14.59157882,-3.70632400,0.21530510,8.16621500,0.00793553
-14.51157882,-3.89087100,0.09227362,7.96628900,0.00787402
-14.43157881,-3.90625000,-0.12303150,7.70484700,0.00784326
-14.35157881,-3.75246000,-0.43061020,7.39726800,0.00784326
-14.27157881,-3.44488200,-0.83046260,7.04355200,0.00787402
-14.19157881,-3.02965000,-1.26107300,6.61294300,0.00787402
-14.11157881,-2.52214600,-1.73782000,6.16695300,0.00790477
-14.03157881,-1.96850400,-2.21456700,5.69020700,0.00790477
-13.95157881,-1.43024100,-2.67593500,5.21345900,0.00790477
-13.87157881,-0.92273620,-3.10654500,4.76747000,0.00787402
-13.79157881,-0.49212600,-3.47564000,4.36761800,0.00784326
-13.71157880,-0.13841040,-3.78321800,4.04466000,0.00784326
-13.63157880,0.10765260,-4.04466000,3.81397600,0.00784326
-13.55157880,0.27682080,-4.22920700,3.66018700,0.00784326
-13.47157880,0.33833660,-4.36761800,3.59867100,0.00787402
-13.39157880,0.35371550,-4.44451300,3.59867100,0.00790477
-13.31157880,0.30757870,-4.49065000,3.64480800,0.00790477
-13.23157880,0.23068400,-4.49065000,3.72170300,0.00790477
-13.15157880,0.16916830,-4.44451300,3.78321800,0.00790477
-13.07157880,0.09227362,-4.36761800,3.84473400,0.00787402
-12.99157880,0.04613681,-4.22920700,3.89087100,0.00784326
-12.91157879,0.01537894,-4.04466000,3.90625000,0.00784326
-12.83157879,0.00000000,-3.78321800,3.92162900,0.00784326
-12.75157879,-0.01537894,-3.47564000,3.93700800,0.00784326
-12.67157879,0.00000000,-3.10654500,3.93700800,0.00787402
-12.59157879,0.00000000,-2.67593500,3.95238700,0.00790477
-12.51157879,0.00000000,-2.21456700,3.95238700,0.00790477
-12.43157879,0.00000000,-1.73782000,3.95238700,0.00790477
-12.35157879,0.00000000,-1.26107300,3.95238700,0.00787402
-12.27157879,0.00000000,-0.83046260,3.93700800,0.00787402
-12.19157878,0.00000000,-0.44598910,3.92162900,0.00784326
-12.11157878,0.00000000,-0.12303150,3.92162900,0.00784326
-12.03157878,0.00000000,0.10765260,3.92162900,0.00787402
-11.95157878,0.00000000,0.26144190,3.92162900,0.00793553
-11.87157878,0.00000000,0.33833660,3.93700800,0.00805856
-11.79157878,0.00000000,0.33833660,3.95238700,0.00821235
-11.71157878,0.00000000,0.30757870,3.95238700,0.00836614
-11.63157878,0.00000000,0.23068400,3.95238700,0.00851993
-11.55157878,0.00000000,0.15378940,3.95238700,0.00858145
-11.47157877,0.00000000,0.09227362,3.93700800,0.00855069
-11.39157877,0.01537894,0.03075787,3.92162900,0.00839690
-11.31157877,0.00000000,0.00000000,3.92162900,0.00805856
-11.23157877,-0.01537894,0.00000000,3.92162900,0.00756644
-11.15157877,-0.04613681,0.03075787,3.92162900,0.00688976
-11.07157877,-0.09227362,0.09227362,3.93700800,0.00602854
-10.99157877,-0.16916830,0.15378940,3.95238700,0.00501353
-10.91157877,-0.23068400,0.23068400,3.95238700,0.00396777
-10.83157877,-0.30757870,0.30757870,3.95238700,0.00286048
-10.75157877,-0.35371550,0.35371550,3.95238700,0.00184547
-10.67157876,-0.33833660,0.33833660,3.93700800,0.00098425
-10.59157876,-0.27682080,0.27682080,3.93700800,0.00036909
-10.51157876,-0.10765260,0.10765260,3.92162900,0.00003076
-10.43157876,0.13841040,-0.13841040,3.90625000,0.00003076
-10.35157876,0.49212600,-0.49212600,3.89087100,0.00036909
-10.27157876,0.92273620,-0.92273620,3.84473400,0.00098425
-10.19157876,1.43024100,-1.43024100,3.78321800,0.00184547
-10.11157876,1.96850400,-1.96850400,3.72170300,0.00286048
-10.03157876,2.52214600,-2.52214600,3.64480800,0.00396777
-9.95157875,3.01427100,-3.01427100,3.59867100,0.00501353
-9.87157875,3.44488200,-3.44488200,3.58329200,0.00599779
-9.79157875,3.73708200,-3.73708200,3.64480800,0.00685901
-9.71157875,3.90625000,-3.90625000,3.79859700,0.00756644
-9.63157875,3.90625000,-3.90625000,4.07541800,0.00808932
-9.55157875,3.73708200,-3.73708200,4.45989200,0.00848917
-9.47157875,3.44488200,-3.44488200,4.95201700,0.00873524
-9.39157875,3.01427100,-3.01427100,5.53641700,0.00891978
-9.31157875,2.52214600,-2.52214600,6.16695300,0.00898130
-9.23157874,1.96850400,-1.96850400,6.78211100,0.00898130
-9.15157874,1.43024100,-1.43024100,7.32037400,0.00891978
-9.07157874,0.92273620,-0.92273620,7.72022600,0.00873524
-8.99157874,0.49212600,-0.49212600,7.93553100,0.00848917
-8.91157874,0.13841040,-0.13841040,7.93553100,0.00808932
-8.83157874,-0.10765260,0.10765260,7.68946800,0.00756644
-8.75157874,-0.27682080,0.27682080,7.18196300,0.00685901
-8.67157874,-0.33833660,0.33833660,6.45915300,0.00599779
-8.59157874,-0.35371550,0.35371550,5.53641700,0.00501353
-8.51157874,-0.30757870,0.30757870,4.49065000,0.00396777
-8.43157873,-0.23068400,0.23068400,3.41412400,0.00286048
-8.35157873,-0.16916830,0.16916830,2.35297700,0.00184547
-8.27157873,-0.10765260,0.09227362,1.41486200,0.00098425
-8.19157873,-0.04613681,0.04613681,0.67667320,0.00036909
-8.11157873,-0.01537894,0.01537894,0.15378940,0.00003076
-8.03157873,0.01537894,0.00000000,-0.09227362,0.00003076
-7.95157873,0.04613681,-0.01537894,-0.09227362,0.00036909
-7.87157873,0.10765260,0.00000000,0.15378940,0.00098425
-7.79157873,0.16916830,0.00000000,0.58439960,0.00184547
-7.71157872,0.23068400,0.00000000,1.12266200,0.00286048
-7.63157872,0.30757870,0.00000000,1.73782000,0.00396777
-7.55157872,0.35371550,0.00000000,2.35297700,0.00501353
-7.47157872,0.35371550,0.00000000,2.92199800,0.00602854
-7.39157872,0.27682080,-0.01537894,3.39874500,0.00688976
-7.31157872,0.12303150,0.00000000,3.76783900,0.00756644
-7.23157872,-0.15378940,0.01537894,4.04466000,0.00805856
-7.15157872,-0.53826270,0.04613681,4.21382900,0.00839690
-7.07157872,-1.01501000,0.09227362,4.29072300,0.00855069
-6.99157872,-1.59940900,0.16916830,4.29072300,0.00858145
-6.91157871,-2.21456700,0.23068400,4.25996500,0.00851993
-6.83157871,-2.82972400,0.30757870,4.18307100,0.00836614
-6.75157871,-3.36798700,0.35371550,4.10617600,0.00821235
-6.67157871,-3.78321800,0.33833660,4.02928100,0.00805856
-6.59157871,-4.01390200,0.27682080,3.96776600,0.00793553
-6.51157871,-4.01390200,0.10765260,3.93700800,0.00784326
-6.43157871,-3.76783900,-0.13841040,3.92162900,0.00784326
-6.35157871,-3.26033400,-0.49212600,3.92162900,0.00793553
-6.27157871,-2.52214600,-0.92273620,3.93700800,0.00805856
-6.19157870,-1.58403000,-1.43024100,3.93700800,0.00821235
-6.11157870,-0.53826270,-1.96850400,3.95238700,0.00836614
-6.03157870,0.53826270,-2.52214600,3.95238700,0.00851993
-5.95157870,1.58403000,-3.02965000,3.95238700,0.00858145
-5.87157870,2.50676700,-3.44488200,3.93700800,0.00855069
-5.79157870,3.24495600,-3.75246000,3.92162900,0.00836614
-5.71157870,3.75246000,-3.90625000,3.92162900,0.00805856
-5.63157870,4.02928100,-3.89087100,3.92162900,0.00759720
-5.55157870,4.06003900,-3.70632400,3.92162900,0.00698204
-5.47157869,3.87549200,-3.35260800,3.93700800,0.00621309
-5.39157869,3.53715500,-2.86048200,3.95238700,0.00535187
-5.31157869,3.06040800,-2.27608300,3.95238700,0.00442913
-5.23157869,2.52214600,-1.67630400,3.95238700,0.00347564
-5.15157869,1.93774600,-1.09190400,3.95238700,0.00252215
-5.07157869,1.36872500,-0.58439960,3.93700800,0.00166093
-4.99157869,0.81508360,-0.21530510,3.92162900,0.00089198
-4.91157869,0.26144190,-0.03075787,3.92162900,0.00024606
-4.83157869,-0.26144190,-0.03075787,3.92162900,-0.00021531
-4.75157869,-0.81508360,-0.21530510,3.92162900,-0.00052288
-4.67157868,-1.36872500,-0.58439960,3.93700800,-0.00067667
-4.59157868,-1.93774600,-1.09190400,3.95238700,-0.00067667
-4.51157868,-2.52214600,-1.67630400,3.95238700,-0.00061516
-4.43157868,-3.06040800,-2.27608300,3.95238700,-0.00046137
-4.35157868,-3.53715500,-2.86048200,3.93700800,-0.00030758
-4.27157868,-3.87549200,-3.35260800,3.93700800,-0.00018455
-4.19157868,-4.06003900,-3.70632400,3.92162900,-0.00006152
-4.11157868,-4.02928100,-3.89087100,3.92162900,0.00000000
-4.03157868,-3.75246000,-3.89087100,3.93700800,0.00000000
-3.95157867,-3.24495600,-3.70632400,3.96776600,-0.00006152
-3.87157867,-2.50676700,-3.35260800,4.02928100,-0.00018455
-3.79157867,-1.58403000,-2.86048200,4.10617600,-0.00030758
-3.71157867,-0.53826270,-2.27608300,4.18307100,-0.00046137
-3.63157867,0.53826270,-1.67630400,4.25996500,-0.00061516
-3.55157867,1.58403000,-1.09190400,4.29072300,-0.00067667
-3.47157867,2.52214600,-0.58439960,4.27534400,-0.00067667
-3.39157867,3.26033400,-0.21530510,4.18307100,-0.00052288
-3.31157867,3.76783900,-0.03075787,4.02928100,-0.00021531
-3.23157866,4.01390200,-0.03075787,3.79859700,0.00024606
-3.15157866,4.01390200,-0.21530510,3.49101900,0.00089198
-3.07157866,3.78321800,-0.58439960,3.10654500,0.00166093
-2.99157866,3.36798700,-1.09190400,2.67593500,0.00252215
-2.91157866,2.82972400,-1.67630400,2.21456700,0.00347564
-2.83157866,2.21456700,-2.27608300,1.73782000,0.00442913
-2.75157866,1.59940900,-2.86048200,1.26107300,0.00535187
-2.67157866,1.01501000,-3.35260800,0.83046260,0.00621309
-2.59157866,0.53826270,-3.70632400,0.44598910,0.00698204
-2.51157866,0.15378940,-3.89087100,0.12303150,0.00759720
-2.43157865,-0.12303150,-3.90625000,-0.10765260,0.00805856
-2.35157865,-0.27682080,-3.75246000,-0.26144190,0.00836614
-2.27157865,-0.35371550,-3.44488200,-0.33833660,0.00855069
-2.19157865,-0.35371550,-3.02965000,-0.33833660,0.00858145
-2.11157865,-0.30757870,-2.52214600,-0.30757870,0.00851993
-2.03157865,-0.23068400,-1.96850400,-0.23068400,0.00836614
-1.95157865,-0.16916830,-1.43024100,-0.15378940,0.00821235
-1.87157865,-0.09227362,-0.92273620,-0.04613681,0.00805856
-1.79157865,-0.04613681,-0.49212600,0.03075787,0.00793553
-1.71157864,-0.01537894,-0.13841040,0.03075787,0.00787402
-1.63157864,0.00000000,0.10765260,-0.06151574,0.00784326
-1.55157864,0.01537894,0.27682080,-0.29219980,0.00784326
-1.47157864,0.00000000,0.33833660,-0.66129420,0.00787402
-1.39157864,0.00000000,0.35371550,-1.13804100,0.00787402
-1.31157864,0.00000000,0.30757870,-1.66092500,0.00790477
-1.23157864,0.00000000,0.23068400,-2.12229300,0.00790477
-1.15157864,0.00000000,0.15378940,-2.26070400,0.00790477
-1.07157864,0.00000000,0.09227362,-1.86085100,0.00787402
-0.99157863,-0.01537894,0.03075787,-1.09190400,0.00784326
-0.91157863,0.00000000,0.00000000,-0.29219980,0.00784326
-0.83157863,0.01537894,0.00000000,0.13841040,0.00784326
-0.75157863,0.04613681,0.03075787,-0.16916830,0.00784326
-0.67157863,0.09227362,0.09227362,-1.39948300,0.00787402
-0.59157863,0.16916830,0.15378940,-3.46026100,0.00790477
-0.51157863,0.23068400,0.23068400,-5.82861700,0.00790477
-0.43157863,0.30757870,0.30757870,-7.62795300,0.00790477
-0.35157863,0.33833660,0.33833660,-7.50492100,0.00790477
-0.27157863,0.29219980,0.33833660,-3.96776600,0.00787402
-0.19157862,0.19992620,0.26144190,4.24458600,0.00784326
-0.11157862,0.07689468,0.10765260,18.17790000,0.00784326
-0.03157862,-0.06151574,-0.12303150,38.32431000,0.00784326
0.04842138,-0.18454720,-0.44598910,64.60691000,0.00784326
0.12842138,-0.26144190,-0.83046260,96.33366000,0.00787402
0.20842138,-0.29219980,-1.26107300,132.13580000,0.00790477
0.28842138,-0.32295760,-1.73782000,170.16790000,0.00790477
0.36842138,-0.38447340,-2.21456700,208.26160000,0.00790477
0.44842138,-0.69205210,-2.67593500,244.15600000,0.00787402
0.52842139,-1.35334600,-3.10654500,275.74430000,0.00787402
0.60842139,-2.32221900,-3.49101900,301.24260000,0.00784326
0.68842139,-3.39874500,-3.79859700,319.43590000,0.00784326
0.76842139,-4.39837600,-4.02928100,329.67830000,0.00787402
0.84842139,-5.09042800,-4.18307100,332.04660000,0.00793553
0.92842139,-5.36724900,-4.27534400,327.18690000,0.00805856
1.00842139,-5.24421700,-4.29072300,316.20630000,0.00821235
1.08842139,-4.98277500,-4.25996500,300.50440000,0.00836614
1.16842139,-4.99815400,-4.18307100,281.60370000,0.00851993
1.24842139,-6.16695300,-4.12155500,260.90360000,0.00855069
1.32842140,-9.30425600,-4.09079700,239.57310000,0.00842766
1.40842140,-14.77916000,-4.06003900,218.47320000,0.00821235
1.48842140,-22.66855000,-3.99852300,198.11150000,0.00796629
1.56842140,-32.75713000,-3.81397600,178.67250000,0.00775098
1.64842140,-44.64505000,-3.49101900,160.06400000,0.00765871
1.72842140,-57.80942000,-2.98351400,142.05520000,0.00772023
1.80842140,-71.78887000,-2.32221900,124.41560000,0.00796629
1.88842140,-86.30659000,-1.58403000,106.92970000,0.00821235
1.96842140,-101.31640000,-0.90735720,89.55154000,0.00833538
2.04842141,-117.35670000,-0.59977850,72.38865000,0.00787402
2.12842141,-135.08860000,-0.92273620,55.77940000,0.00645915
2.20842141,-154.81970000,-1.83009300,40.15440000,0.00421383
2.28842141,-176.62710000,-3.16806100,26.00578000,0.00144562
2.36842141,-200.38750000,-4.69057600,13.74877000,-0.00138410
2.44842141,-225.71660000,-6.13619500,3.67556500,-0.00384473
2.52842141,-252.07610000,-7.30499500,-4.12155500,-0.00559793
2.60842141,-278.75860000,-8.19697300,-9.78100300,-0.00670522
2.68842141,-305.11810000,-9.01205700,-13.62574000,-0.00756644
2.76842142,-330.52410000,-10.27313000,-16.30167000,-0.00913509
2.84842142,-354.77670000,-12.90293000,-18.40859000,-0.01297982
2.92842142,-377.75280000,-17.85494000,-20.22330000,-0.02076156
3.00842142,-399.12950000,-25.66744000,-21.79195000,-0.03349533
3.08842142,-418.59920000,-36.57111000,-23.06841000,-0.05164247
3.16842142,-435.90060000,-50.44291000,-23.85273000,-0.07514149
3.24842142,-450.75660000,-66.89837000,-23.97576000,-0.10343870
3.32842142,-462.99820000,-85.36847000,-23.25295000,-0.13551920
3.40842142,-472.50240000,-105.19190000,-21.68430000,-0.17021410
3.48842142,-479.28450000,-125.75360000,-19.31594000,-0.20635460
3.56842143,-483.45220000,-146.68430000,-16.47084000,-0.24301800
3.64842143,-485.34380000,-168.01490000,-13.45657000,-0.27983510
3.72842143,-485.39000000,-189.92990000,-10.47305000,-0.31674460
3.80842143,-483.77520000,-212.44460000,-7.67408900,-0.35346950
3.88842143,-480.65330000,-235.46690000,-5.10580700,-0.38988680
3.96842143,-476.03960000,-258.81210000,-2.79896600,-0.42581200
4.04842143,-469.91880000,-282.23420000,-0.69205210,-0.46090670
4.12842143,-462.16780000,-305.34880000,1.23031500,-0.49483270
4.20842143,-452.70970000,-327.69440000,3.02965000,-0.52703620
4.28842144,-441.48310000,-348.85580000,4.75209100,-0.55690210
4.36842144,-428.47250000,-368.41780000,6.39763700,-0.58375370
4.44842144,-413.84720000,-386.18050000,7.92015200,-0.60697590
4.52842144,-398.05300000,-402.00540000,9.28887700,-0.62598430
4.60842144,-381.64370000,-415.64650000,10.47305000,-0.64016360
4.68842144,-365.11130000,-426.85780000,11.41117000,-0.64889880
4.76842144,-348.90190000,-435.39310000,12.05709000,-0.65185160
4.84842144,-333.29230000,-441.09860000,12.38004000,-0.64886810
4.92842144,-318.39010000,-443.92840000,12.38004000,-0.64007130
5.00842145,-304.05690000,-443.88220000,12.10322000,-0.62592270
5.08842145,-290.01600000,-441.12940000,11.56496000,-0.60712970
5.16842145,-275.68280000,-435.90060000,10.88829000,-0.58452270
5.24842145,-260.59610000,-428.58020000,10.15010000,-0.55917820
5.32842145,-244.75580000,-419.62960000,9.42728800,-0.53217270
5.40842145,-228.42330000,-409.40260000,8.75061400,-0.50439830
5.48842145,-212.02940000,-398.17600000,8.13545700,-0.47659330
5.56842145,-196.05070000,-386.10360000,7.58181600,-0.44921880
5.64842145,-180.90240000,-373.26210000,7.07431000,-0.42245940
5.72842145,-166.84610000,-359.62100000,6.58218500,-0.39622290
5.80842146,-153.95850000,-345.13410000,6.10543700,-0.37038630
5.88842146,-142.05520000,-329.77050000,5.62869100,-0.34464200
5.96842146,-130.59790000,-313.40730000,5.15194400,-0.31859000
6.04842146,-119.03300000,-296.15220000,4.70595500,-0.29210750
6.12842146,-107.28350000,-278.40490000,4.33686000,-0.26559420
6.20842146,-95.51857000,-260.67300000,4.06003900,-0.23975760
6.28842146,-83.99975000,-243.54080000,3.92162900,-0.21536660
6.36842146,-73.08070000,-227.45450000,3.95238700,-0.19319020
6.44842146,-63.08440000,-212.75220000,4.16769200,-0.17372050
6.52842147,-54.22613000,-199.54170000,4.53678600,-0.15723430
6.60842147,-46.56742000,-187.66920000,5.02891200,-0.14354700
6.68842147,-40.00061000,-176.84240000,5.62869100,-0.13219730
6.76842147,-34.12586000,-166.40010000,6.22846900,-0.12207800
6.84842147,-28.55869000,-155.77320000,6.79749000,-0.11223550
6.92842147,-23.23757000,-144.85420000,7.27423700,-0.10236220
7.00842147,-18.23942000,-133.81210000,7.61257400,-0.09251969
7.08842147,-13.74877000,-122.92380000,7.81250000,-0.08298475
7.16842147,-9.98092900,-112.60460000,7.84325700,-0.07415723
7.24842148,-7.13582600,-103.16190000,7.72022600,-0.06649853
7.32842148,-5.29035400,-94.84190000,7.47416300,-0.06031619
7.40842148,-4.44451300,-87.67532000,7.13582600,-0.05567175
7.48842148,-4.47527100,-81.55450000,6.70521600,-0.05241142
7.56842148,-5.01353300,-75.95657000,6.22846900,-0.04992003
7.64842148,-5.72096400,-70.38940000,5.72096400,-0.04764395
7.72842148,-6.42839500,-64.74532000,5.19808000,-0.04530635
7.80842148,-7.05893100,-59.08587000,4.69057600,-0.04287647
7.88842148,-7.59719500,-53.59559000,4.16769200,-0.04041585
7.96842148,-8.07394100,-48.52054000,3.67556500,-0.03807825
8.04842149,-8.56606700,-44.07603000,3.16806100,-0.03601747
8.12842149,-9.11970900,-40.41584000,2.67593500,-0.03435655
8.20842149,-9.79638200,-37.58612000,2.16843000,-0.03321850
8.28842149,-10.59609000,-35.46383000,1.67630400,-0.03254183
8.36842149,-11.48807000,-33.67987000,1.19955700,-0.03211122
8.44842149,-12.39542000,-31.84978000,0.76894680,-0.03177289
8.52842149,-13.33354000,-29.77362000,0.39985230,-0.03149606
8.60842149,-14.27165000,-27.43602000,0.13841040,-0.03131152
8.68842149,-15.22515000,-24.86774000,0.01537894,-0.03131152
8.76842150,-16.14788000,-22.19180000,0.03075787,-0.03152682
8.84842150,-17.03986000,-19.59276000,0.19992620,-0.03204970
8.92842150,-17.88570000,-17.16289000,0.50750490,-0.03291092
9.00842150,-18.68541000,-14.97908000,0.92273620,-0.03407972
9.08842150,-19.42360000,-13.05672000,1.43024100,-0.03543307
9.16842150,-20.10027000,-11.21124000,1.98388300,-0.03678642
9.24842150,-20.76156000,-9.24274100,2.50676700,-0.03795522
9.32842150,-21.45362000,-7.01279500,3.01427100,-0.03881644
9.40842150,-22.20718000,-4.47527100,3.44488200,-0.03927780
9.48842151,-23.06841000,-1.58403000,3.78321800,-0.03933932
9.56842151,-24.03728000,1.66092500,4.02928100,-0.03900098
9.64842151,-25.12918000,5.18270100,4.19845000,-0.03829355
9.72842151,-26.31336000,8.88902600,4.27534400,-0.03730930
9.80842151,-27.54367000,12.68762000,4.29072300,-0.03604823
9.88842151,-28.74323000,16.44008000,4.25996500,-0.03460261
9.96842151,-29.83514000,20.05413000,4.18307100,-0.03297244
10.04842151,-30.71173000,23.40674000,4.10617600,-0.03112697
10.12842151,-31.31151000,26.37487000,4.02928100,-0.02912771
10.20842151,-31.58834000,28.83550000,3.96776600,-0.02697466
10.28842152,-31.54220000,30.69636000,3.93700800,-0.02469857
10.36842152,-31.14235000,31.89591000,3.92162900,-0.02233022
10.44842152,-30.45029000,32.41880000,3.92162900,-0.01993110
10.52842152,-29.49680000,32.31114000,3.93700800,-0.01747047
10.60842152,-28.31262000,31.63447000,3.93700800,-0.01500984
10.68842152,-26.92852000,30.49643000,3.95238700,-0.01254921
10.76842152,-25.35987000,29.00467000,3.95238700,-0.01008858
10.84842152,-23.59129000,27.23610000,3.95238700,-0.00765871
10.92842152,-21.59203000,25.23683000,3.93700800,-0.00525960
11.00842153,-19.37746000,23.08378000,3.93700800,-0.00298351
11.08842153,-16.96297000,20.79232000,3.92162900,-0.00092274
11.16842153,-14.37930000,18.40859000,3.90625000,0.00086122
11.24842153,-11.67261000,15.93258000,3.89087100,0.00233760
11.32842153,-8.85826700,13.37967000,3.84473400,0.00344488
11.40842153,-6.01316400,10.76525000,3.78321800,0.00427534
11.48842153,-3.13730300,8.10469900,3.72170300,0.00482899
11.56842153,-0.27682080,5.38262700,3.64480800,0.00522884
11.64842153,2.56828200,2.56828200,3.59867100,0.00562869
11.72842153,5.36724900,-0.32295760,3.59867100,0.00612082
