Time,Channel A,Channel B,Channel C,Channel D
(ns),(mV),(mV),(mV),(V)

-15.25333383,-0.01537894,-3.67556500,3.81397600,0.00805856
-15.17333382,-0.04613681,-3.16806100,3.70632400,0.00830463
-15.09333382,-0.09227362,-2.67593500,3.69094500,0.00836614
-15.01333382,-0.16916830,-2.16843000,3.76783900,0.00827387
-14.93333382,-0.23068400,-1.67630400,3.89087100,0.00802781
-14.85333382,-0.30757870,-1.19955700,4.01390200,0.00778174
-14.77333382,-0.35371550,-0.76894680,4.12155500,0.00753568
-14.69333382,-0.35371550,-0.39985230,4.18307100,0.00738189
-14.61333382,-0.27682080,-0.13841040,4.15231300,0.00741265
-14.53333382,-0.12303150,-0.01537894,4.01390200,0.00762795
-14.45333381,0.15378940,-0.03075787,3.79859700,0.00812008
-14.37333381,0.53826270,-0.19992620,3.49101900,0.00879675
-14.29333381,1.01501000,-0.50750490,3.10654500,0.00971949
-14.21333381,1.59940900,-0.92273620,2.67593500,0.01073450
-14.13333381,2.21456700,-1.43024100,2.21456700,0.01184178
-14.05333381,2.82972400,-1.98388300,1.73782000,0.01294907
-13.97333381,3.36798700,-2.50676700,1.27645200,0.01393332
-13.89333381,3.78321800,-2.99889300,0.83046260,0.01476378
-13.81333381,4.01390200,-3.42950300,0.46136810,0.01534818
-13.73333380,4.01390200,-3.78321800,0.13841040,0.01565576
-13.65333380,3.76783900,-4.04466000,-0.12303150,0.01565576
-13.57333380,3.26033400,-4.24458600,-0.30757870,0.01534818
-13.49333380,2.52214600,-4.36761800,-0.43061020,0.01476378
-13.41333380,1.58403000,-4.45989200,-0.50750490,0.01393332
-13.33333380,0.53826270,-4.49065000,-0.53826270,0.01294907
-13.25333380,-0.53826270,-4.49065000,-0.53826270,0.01184178
-13.17333380,-1.58403000,-4.44451300,-0.50750490,0.01073450
-13.09333380,-2.52214600,-4.36761800,-0.43061020,0.00971949
-13.01333380,-3.26033400,-4.22920700,-0.30757870,0.00879675
-12.93333379,-3.76783900,-4.04466000,-0.12303150,0.00812008
-12.85333379,-4.01390200,-3.78321800,0.13841040,0.00762795
-12.77333379,-4.01390200,-3.47564000,0.46136810,0.00741265
-12.69333379,-3.78321800,-3.10654500,0.83046260,0.00738189
-12.61333379,-3.36798700,-2.67593500,1.27645200,0.00753568
-12.53333379,-2.82972400,-2.21456700,1.73782000,0.00778174
-12.45333379,-2.21456700,-1.73782000,2.21456700,0.00802781
-12.37333379,-1.58403000,-1.27645200,2.67593500,0.00827387
-12.29333379,-1.01501000,-0.83046260,3.10654500,0.00836614
-12.21333378,-0.52288380,-0.46136810,3.49101900,0.00830463
-12.13333378,-0.13841040,-0.13841040,3.79859700,0.00805856
-12.05333378,0.10765260,0.12303150,4.02928100,0.00756644
-11.97333378,0.23068400,0.30757870,4.18307100,0.00688976
-11.89333378,0.24606300,0.43061020,4.27534400,0.00602854
-11.81333378,0.18454720,0.50750490,4.29072300,0.00504429
-11.73333378,0.06151574,0.53826270,4.25996500,0.00396777
-11.65333378,-0.06151574,0.53826270,4.18307100,0.00286048
-11.57333378,-0.18454720,0.50750490,4.10617600,0.00184547
-11.49333377,-0.24606300,0.43061020,4.02928100,0.00098425
-11.41333377,-0.23068400,0.30757870,3.96776600,0.00036909
-11.33333377,-0.10765260,0.12303150,3.93700800,0.00003076
-11.25333377,0.13841040,-0.13841040,3.92162900,0.00003076
-11.17333377,0.52288380,-0.46136810,3.92162900,0.00036909
-11.09333377,1.01501000,-0.83046260,3.93700800,0.00098425
-11.01333377,1.58403000,-1.27645200,3.93700800,0.00184547
-10.93333377,2.21456700,-1.73782000,3.95238700,0.00286048
-10.85333377,2.82972400,-2.21456700,3.95238700,0.00396777
-10.77333377,3.36798700,-2.67593500,3.95238700,0.00501353
-10.69333376,3.78321800,-3.10654500,3.93700800,0.00602854
-10.61333376,4.01390200,-3.49101900,3.92162900,0.00688976
-10.53333376,4.01390200,-3.79859700,3.92162900,0.00756644
-10.45333376,3.76783900,-4.02928100,3.92162900,0.00805856
-10.37333376,3.26033400,-4.18307100,3.92162900,0.00839690
-10.29333376,2.52214600,-4.27534400,3.93700800,0.00855069
-10.21333376,1.58403000,-4.29072300,3.95238700,0.00858145
-10.13333376,0.53826270,-4.25996500,3.95238700,0.00851993
-10.05333376,-0.53826270,-4.18307100,3.95238700,0.00836614
-9.97333375,-1.58403000,-4.10617600,3.93700800,0.00821235
-9.89333375,-2.52214600,-4.02928100,3.93700800,0.00805856
-9.81333375,-3.26033400,-3.96776600,3.92162900,0.00793553
-9.73333375,-3.76783900,-3.93700800,3.92162900,0.00787402
-9.65333375,-4.01390200,-3.92162900,3.93700800,0.00784326
-9.57333375,-4.01390200,-3.92162900,3.96776600,0.00784326
-9.49333375,-3.78321800,-3.93700800,4.02928100,0.00787402
-9.41333375,-3.36798700,-3.93700800,4.10617600,0.00787402
-9.33333375,-2.82972400,-3.95238700,4.18307100,0.00790477
-9.25333374,-2.21456700,-3.95238700,4.25996500,0.00790477
-9.17333374,-1.59940900,-3.93700800,4.29072300,0.00790477
-9.09333374,-1.01501000,-3.93700800,4.27534400,0.00787402
-9.01333374,-0.53826270,-3.92162900,4.19845000,0.00784326
-8.93333374,-0.15378940,-3.92162900,4.02928100,0.00784326
-8.85333374,0.12303150,-3.93700800,3.78321800,0.00784326
-8.77333374,0.27682080,-3.96776600,3.44488200,0.00784326
-8.69333374,0.35371550,-4.02928100,3.01427100,0.00787402
-8.61333374,0.35371550,-4.10617600,2.50676700,0.00790477
-8.53333374,0.30757870,-4.18307100,1.98388300,0.00790477
-8.45333373,0.23068400,-4.25996500,1.43024100,0.00790477
-8.37333373,0.16916830,-4.29072300,0.92273620,0.00790477
-8.29333373,0.09227362,-4.27534400,0.49212600,0.00787402
-8.21333373,0.04613681,-4.19845000,0.18454720,0.00784326
-8.13333373,0.01537894,-4.02928100,0.01537894,0.00784326
-8.05333373,0.00000000,-3.78321800,0.01537894,0.00784326
-7.97333373,-0.01537894,-3.44488200,0.18454720,0.00784326
-7.89333373,0.00000000,-3.01427100,0.49212600,0.00787402
-7.81333373,0.00000000,-2.50676700,0.92273620,0.00790477
-7.73333372,0.00000000,-1.98388300,1.43024100,0.00790477
-7.65333372,0.00000000,-1.43024100,1.98388300,0.00790477
-7.57333372,0.00000000,-0.92273620,2.50676700,0.00787402
-7.49333372,0.00000000,-0.50750490,2.99889300,0.00787402
-7.41333372,0.00000000,-0.19992620,3.42950300,0.00784326
-7.33333372,0.00000000,-0.03075787,3.78321800,0.00784326
-7.25333372,0.00000000,-0.01537894,4.04466000,0.00787402
-7.17333372,0.00000000,-0.13841040,4.24458600,0.00793553
-7.09333372,0.00000000,-0.39985230,4.36761800,0.00805856
-7.01333372,0.00000000,-0.76894680,4.45989200,0.00821235
-6.93333371,0.00000000,-1.19955700,4.49065000,0.00836614
-6.85333371,0.00000000,-1.67630400,4.49065000,0.00851993
-6.77333371,0.00000000,-2.16843000,4.45989200,0.00858145
-6.69333371,0.00000000,-2.67593500,4.36761800,0.00855069
-6.61333371,0.00000000,-3.16806100,4.24458600,0.00836614
-6.53333371,0.00000000,-3.67556500,4.04466000,0.00805856
-6.45333371,0.00000000,-4.16769200,3.78321800,0.00759720
-6.37333371,0.00000000,-4.69057600,3.42950300,0.00698204
-6.29333371,0.00000000,-5.19808000,2.99889300,0.00621309
-6.21333370,0.00000000,-5.72096400,2.50676700,0.00535187
-6.13333370,0.00000000,-6.22846900,1.98388300,0.00442913
-6.05333370,0.00000000,-6.70521600,1.43024100,0.00347564
-5.97333370,0.00000000,-7.13582600,0.92273620,0.00255290
-5.89333370,0.00000000,-7.47416300,0.49212600,0.00166093
-5.81333370,-0.01537894,-7.72022600,0.18454720,0.00092274
-5.73333370,0.00000000,-7.82787800,0.01537894,0.00027682
-5.65333370,0.01537894,-7.81250000,0.01537894,-0.00024606
-5.57333370,0.04613681,-7.65871000,0.18454720,-0.00061516
-5.49333369,0.09227362,-7.36651000,0.49212600,-0.00086122
-5.41333369,0.16916830,-6.96665800,0.92273620,-0.00101501
-5.33333369,0.23068400,-6.47453200,1.43024100,-0.00107653
-5.25333369,0.30757870,-5.92089000,1.98388300,-0.00107653
-5.17333369,0.35371550,-5.36724900,2.50676700,-0.00101501
-5.09333369,0.35371550,-4.85974400,3.01427100,-0.00086122
-5.01333369,0.27682080,-4.39837600,3.44488200,-0.00061516
-4.93333369,0.12303150,-4.06003900,3.78321800,-0.00024606
-4.85333369,-0.15378940,-3.81397600,4.02928100,0.00027682
-4.77333369,-0.53826270,-3.70632400,4.19845000,0.00092274
-4.69333368,-1.01501000,-3.69094500,4.27534400,0.00166093
-4.61333368,-1.59940900,-3.76783900,4.29072300,0.00255290
-4.53333368,-2.21456700,-3.89087100,4.25996500,0.00347564
-4.45333368,-2.82972400,-4.01390200,4.18307100,0.00442913
-4.37333368,-3.36798700,-4.13693400,4.10617600,0.00535187
-4.29333368,-3.78321800,-4.18307100,4.02928100,0.00621309
-4.21333368,-3.99852300,-4.15231300,3.96776600,0.00698204
-4.13333368,-4.01390200,-4.02928100,3.93700800,0.00759720
-4.05333368,-3.76783900,-3.78321800,3.92162900,0.00805856
-3.97333367,-3.30647100,-3.44488200,3.92162900,0.00836614
-3.89333367,-2.61441900,-3.01427100,3.93700800,0.00855069
-3.81333367,-1.75319900,-2.52214600,3.93700800,0.00858145
-3.73333367,-0.78432570,-1.98388300,3.95238700,0.00851993
-3.65333367,0.24606300,-1.43024100,3.95238700,0.00836614
-3.57333367,1.24569400,-0.92273620,3.95238700,0.00821235
-3.49333367,2.18380900,-0.49212600,3.93700800,0.00805856
-3.41333367,2.99889300,-0.18454720,3.93700800,0.00793553
-3.33333367,3.66018700,-0.01537894,3.92162900,0.00787402
-3.25333366,4.13693400,-0.01537894,3.90625000,0.00784326
-3.17333366,4.45989200,-0.18454720,3.89087100,0.00784326
-3.09333366,4.61368100,-0.49212600,3.84473400,0.00787402
-3.01333366,4.62906000,-0.92273620,3.78321800,0.00787402
-2.93333366,4.56754400,-1.43024100,3.72170300,0.00790477
-2.85333366,4.42913300,-1.98388300,3.64480800,0.00790477
-2.77333366,4.25996500,-2.50676700,3.59867100,0.00790477
-2.69333366,4.10617600,-2.99889300,3.59867100,0.00787402
-2.61333366,3.99852300,-3.42950300,3.66018700,0.00784326
-2.53333366,3.93700800,-3.78321800,3.81397600,0.00784326
-2.45333365,3.93700800,-4.04466000,4.06003900,0.00784326
-2.37333365,3.99852300,-4.24458600,4.41375400,0.00784326
-2.29333365,4.10617600,-4.36761800,4.85974400,0.00787402
-2.21333365,4.25996500,-4.45989200,5.38262700,0.00790477
-2.13333365,4.42913300,-4.49065000,5.92089000,0.00790477
-2.05333365,4.56754400,-4.49065000,6.47453200,0.00790477
-1.97333365,4.62906000,-4.44451300,6.96665800,0.00787402
-1.89333365,4.61368100,-4.36761800,7.39726800,0.00787402
-1.81333365,4.45989200,-4.22920700,7.70484700,0.00784326
-1.73333364,4.13693400,-4.04466000,7.84325700,0.00784326
-1.65333364,3.66018700,-3.78321800,7.78174200,0.00787402
-1.57333364,2.99889300,-3.47564000,7.50492100,0.00793553
-1.49333364,2.18380900,-3.10654500,6.99741600,0.00805856
-1.41333364,1.24569400,-2.67593500,6.32074300,0.00821235
-1.33333364,0.24606300,-2.21456700,5.52103800,0.00836614
-1.25333364,-0.78432570,-1.73782000,4.70595500,0.00851993
-1.17333364,-1.75319900,-1.26107300,4.15231300,0.00858145
-1.09333364,-2.62979800,-0.83046260,3.99852300,0.00855069
-1.01333363,-3.32185000,-0.44598910,4.09079700,0.00839690
-0.93333363,-3.78321800,-0.12303150,4.09079700,0.00805856
-0.85333363,-3.98314500,0.10765260,3.58329200,0.00756644
-0.77333363,-3.92162900,0.26144190,2.19918800,0.00688976
-0.69333363,-3.58329200,0.33833660,-0.19992620,0.00602854
-0.61333363,-3.04502900,0.33833660,-3.50639700,0.00501353
-0.53333363,-2.35297700,0.30757870,-7.15120500,0.00396777
-0.45333363,-1.59940900,0.23068400,-10.24237000,0.00286048
-0.37333363,-0.90735720,0.15378940,-11.39579000,0.00184547
-0.29333363,-0.36909450,0.09227362,-9.07357200,0.00098425
-0.21333362,-0.04613681,0.03075787,-1.99926200,0.00033834
-0.13333362,0.04613681,0.00000000,10.84215000,0.00003076
-0.05333362,-0.10765260,0.00000000,29.97355000,0.00006152
0.02666638,-0.47674700,0.03075787,55.28728000,0.00046137
0.10666638,-1.03038900,0.09227362,86.06052000,0.00116880
0.18666638,-1.70706200,0.15378940,120.97070000,0.00218381
0.26666638,-2.46063000,0.23068400,158.18770000,0.00335261
0.34666638,-3.27571300,0.30757870,195.60470000,0.00455217
0.42666638,-4.22920700,0.33833660,231.02240000,0.00572097
0.50666639,-5.36724900,0.33833660,262.45690000,0.00670522
0.58666639,-6.52066900,0.26144190,288.20130000,0.00741265
0.66666639,-7.48954200,0.10765260,307.10200000,0.00778174
0.74666639,-8.05856200,-0.12303150,318.60540000,0.00778174
0.82666639,-8.04318300,-0.44598910,322.78850000,0.00741265
0.90666639,-7.33575200,-0.83046260,320.23560000,0.00670522
0.98666639,-6.05930100,-1.26107300,311.96170000,0.00572097
1.06666639,-4.49065000,-1.73782000,299.24330000,0.00455217
1.14666639,-3.15268200,-2.21456700,283.40300000,0.00335261
1.22666639,-2.93737700,-2.69131400,265.65570000,0.00215305
1.30666640,-4.70595500,-3.15268200,246.98570000,0.00107653
1.38666640,-8.85826700,-3.55253400,228.06960000,0.00030758
1.46666640,-15.44045000,-3.84473400,209.32270000,-0.00003076
1.54666640,-24.29872000,-3.96776600,190.83720000,0.00015379
1.62666640,-34.97170000,-3.89087100,172.52090000,0.00095349
1.70666640,-46.98265000,-3.61405000,154.22000000,0.00230684
1.78666640,-59.83944000,-3.15268200,135.78060000,0.00412156
1.86666640,-73.29601000,-2.59904000,117.14140000,0.00618233
1.94666640,-87.35236000,-2.06077700,98.39443000,0.00821235
2.02666641,-102.59290000,-1.79933500,79.84743000,0.00968873
2.10666641,-119.72500000,-2.01464100,61.94635000,0.01018086
2.18666641,-139.10250000,-2.64517700,45.22945000,0.00971949
2.26666641,-160.84830000,-3.50639700,30.23499000,0.00855069
2.34666641,-184.85480000,-4.29072300,17.40895000,0.00710507
2.42666641,-210.76830000,-4.78284900,7.02817400,0.00578248
2.50666641,-237.97370000,-4.79822800,-0.89197830,0.00492126
2.58666641,-265.77880000,-4.38299700,-6.53604800,0.00445989
2.66666641,-293.43010000,-3.79859700,-10.27313000,0.00406004
2.74666642,-320.28170000,-3.62942900,-12.82603000,0.00292200
2.82666642,-346.02610000,-4.89050100,-14.79454000,-0.00049213
2.90666642,-370.46320000,-8.59682500,-16.48622000,-0.00775098
2.98666642,-393.27010000,-15.30204000,-17.97798000,-0.01968504
3.06666642,-414.06250000,-25.23683000,-19.17753000,-0.03669414
3.14666642,-432.56330000,-38.26279000,-19.90034000,-0.05859375
3.22666642,-448.48050000,-53.99545000,-19.93110000,-0.08476870
3.30666642,-461.64490000,-71.78887000,-19.11602000,-0.11429630
3.38666642,-471.96420000,-91.01255000,-17.40895000,-0.14606910
3.46666642,-479.48450000,-111.09740000,-14.88681000,-0.17919540
3.54666643,-484.32880000,-131.68980000,-11.90330000,-0.21299830
3.62666643,-486.89710000,-152.94350000,-8.81213000,-0.24750860
3.70666643,-487.60460000,-175.18150000,-5.87475300,-0.28303400
3.78666643,-486.66640000,-198.48050000,-3.21419800,-0.31960510
3.86666643,-484.22120000,-222.82540000,-0.96887300,-0.35731420
3.94666643,-480.29960000,-248.04690000,0.86122040,-0.39600760
4.02666643,-474.82460000,-273.86810000,2.29146100,-0.43540850
4.10666643,-467.68880000,-299.81230000,3.41412400,-0.47493230
4.18666643,-458.76900000,-325.37210000,4.27534400,-0.51374880
4.26666644,-448.01910000,-349.96310000,4.99815400,-0.55093500
4.34666644,-435.40840000,-373.04680000,5.61331200,-0.58541460
4.42666644,-421.13680000,-394.36210000,6.16695300,-0.61617250
4.50666644,-405.63480000,-413.67800000,6.68983700,-0.64240900
4.58666644,-389.41000000,-430.64100000,7.18196300,-0.66317050
4.66666644,-372.95460000,-444.97410000,7.64333200,-0.67768820
4.74666644,-356.69900000,-456.43150000,8.02780400,-0.68559300
4.82666644,-340.90490000,-464.82830000,8.33538300,-0.68670030
4.90666644,-325.64900000,-470.08800000,8.50455100,-0.68122540
4.98666645,-310.85440000,-472.25640000,8.56606700,-0.66972200
5.06666645,-296.24440000,-471.45660000,8.51993000,-0.65292820
5.14666645,-281.31150000,-467.93490000,8.38152000,-0.63182820
5.22666645,-265.62500000,-462.02940000,8.21235200,-0.60749880
5.30666645,-249.26180000,-454.14000000,8.05856200,-0.58095470
5.38666645,-232.56030000,-444.58970000,7.93553100,-0.55302660
5.46666645,-215.98180000,-433.56300000,7.85863600,-0.52439100
5.54666645,-200.01840000,-421.19830000,7.84325700,-0.49535550
5.62666645,-185.10090000,-407.52640000,7.87401500,-0.46610480
5.70666645,-171.47510000,-392.56270000,7.95091000,-0.43660800
5.78666646,-159.14120000,-376.30720000,8.04318300,-0.40671140
5.86666646,-147.91460000,-358.80600000,8.13545700,-0.37635340
5.94666646,-137.13400000,-340.07440000,8.21235200,-0.34541090
6.02666646,-126.16880000,-320.29710000,8.22773100,-0.31400710
6.10666646,-114.89600000,-300.02760000,8.21235200,-0.28284940
6.18666646,-103.39260000,-279.83510000,8.12007800,-0.25276820
6.26666646,-91.91990000,-260.35000000,7.95091000,-0.22477850
6.34666646,-80.80093000,-242.06450000,7.72022600,-0.19964940
6.42666646,-70.37401000,-225.30140000,7.41264700,-0.17796510
6.50666647,-60.86983000,-210.16850000,7.04355200,-0.15987940
6.58666647,-52.42679000,-196.48130000,6.62832200,-0.14514640
6.66666647,-44.96801000,-183.94740000,6.16695300,-0.13308930
6.74666647,-38.13976000,-171.87500000,5.69020700,-0.12257010
6.82666647,-31.60371000,-159.69490000,5.21345900,-0.11245080
6.90666647,-25.34449000,-147.37630000,4.76747000,-0.10239300
6.98666647,-19.45435000,-135.11930000,4.36761800,-0.09242741
7.06666647,-14.13324000,-123.29290000,4.04466000,-0.08289247
7.14666647,-9.61183500,-112.32780000,3.81397600,-0.07428026
7.22666648,-6.07468000,-102.60830000,3.66018700,-0.06705216
7.30666648,-3.59867100,-94.34978000,3.59867100,-0.06154650
7.38666648,-2.16843000,-87.58304000,3.59867100,-0.05785556
7.46666648,-1.64554600,-82.07738000,3.64480800,-0.05573327
7.54666648,-1.70706200,-77.21764000,3.72170300,-0.05450295
7.62666648,-2.03002000,-72.40403000,3.78321800,-0.05336491
7.70666648,-2.46063000,-67.46739000,3.84473400,-0.05198081
7.78666648,-2.96813500,-62.39234000,3.89087100,-0.05025836
7.86666648,-3.56791300,-57.34805000,3.90625000,-0.04819759
7.94666648,-4.32148100,-52.58058000,3.92162900,-0.04592150
8.02666649,-5.32111200,-48.33599000,3.93700800,-0.04361467
8.10666649,-6.61294300,-44.81422000,3.93700800,-0.04146161
8.18666649,-8.21235200,-42.04601000,3.95238700,-0.03958539
8.26666649,-10.05782000,-39.95448000,3.95238700,-0.03804749
8.34666649,-12.02633000,-38.17052000,3.95238700,-0.03666339
8.42666649,-13.99483000,-36.29429000,3.95238700,-0.03534080
8.50666649,-15.85568000,-34.15662000,3.93700800,-0.03404897
8.58666649,-17.54737000,-31.68061000,3.92162900,-0.03284941
8.66666649,-18.99298000,-28.91240000,3.92162900,-0.03180364
8.74666650,-20.16179000,-25.97502000,3.92162900,-0.03100394
8.82666650,-21.02301000,-22.97613000,3.92162900,-0.03045030
8.90666650,-21.57665000,-20.06951000,3.93700800,-0.03020423
8.98666650,-21.88423000,-17.33206000,3.95238700,-0.03020423
9.06666650,-22.00726000,-14.79454000,3.95238700,-0.03038878
9.14666650,-22.00726000,-12.33391000,3.95238700,-0.03066560
9.22666650,-22.00726000,-9.81176100,3.95238700,-0.03091166
9.30666650,-22.13029000,-7.16658400,3.93700800,-0.03109621
9.38666650,-22.46863000,-4.38299700,3.92162900,-0.03121924
9.46666651,-23.09916000,-1.47637800,3.92162900,-0.03131152
9.54666651,-24.05266000,1.49175700,3.92162900,-0.03143455
9.62666651,-25.34449000,4.45989200,3.92162900,-0.03164985
9.70666651,-26.89776000,7.38188900,3.93700800,-0.03189592
9.78666651,-28.62020000,10.16548000,3.95238700,-0.03223425
9.86666651,-30.41954000,12.79527000,3.95238700,-0.03257259
9.94666651,-32.11122000,15.24053000,3.95238700,-0.03284941
10.02666651,-33.57222000,17.53199000,3.95238700,-0.03294168
10.10666651,-34.66412000,19.59276000,3.93700800,-0.03278789
10.18666651,-35.31004000,21.39210000,3.92162900,-0.03241880
10.26666652,-35.43307000,22.89923000,3.92162900,-0.03177289
10.34666652,-35.04860000,24.09879000,3.92162900,-0.03094242
10.42666652,-34.15662000,24.96001000,3.92162900,-0.02989665
10.50666652,-32.84941000,25.51365000,3.93700800,-0.02872785
10.58666652,-31.17310000,25.75972000,3.95238700,-0.02746678
10.66666652,-29.21998000,25.69820000,3.95238700,-0.02608268
10.74666652,-27.03617000,25.35987000,3.95238700,-0.02457554
10.82666652,-24.66781000,24.71395000,3.95238700,-0.02291462
10.90666652,-22.16105000,23.72970000,3.93700800,-0.02103839
10.98666653,-19.59276000,22.37635000,3.92162900,-0.01900837
11.06666653,-16.97834000,20.63853000,3.92162900,-0.01682456
11.14666653,-14.41006000,18.50086000,3.92162900,-0.01451772
11.22666653,-11.88792000,15.97871000,3.92162900,-0.01218012
11.30666653,-9.44266700,13.13361000,3.93700800,-0.00981176
11.38666653,-7.08968900,10.02707000,3.95238700,-0.00744341
11.46666653,-4.81360700,6.73597400,3.95238700,-0.00510581
11.54666653,-2.55290300,3.33722900,3.95238700,-0.00279897
11.62666653,-0.29219980,-0.12303150,3.95238700,-0.00046137
11.70666653,2.03002000,-3.58329200,3.93700800,0.00193775
