Time,Channel A,Channel B,Channel C,Channel D
(ns),(mV),(mV),(mV),(V)

-15.30370383,3.90625000,-0.12303150,7.81250000,0.00756644
-15.22370382,3.73708200,-0.44598910,7.62795300,0.00688976
-15.14370382,3.44488200,-0.83046260,7.28961600,0.00602854
-15.06370382,3.01427100,-1.26107300,6.79749000,0.00501353
-14.98370382,2.52214600,-1.73782000,6.22846900,0.00396777
-14.90370382,1.96850400,-2.21456700,5.62869100,0.00286048
-14.82370382,1.43024100,-2.67593500,5.02891200,0.00184547
-14.74370382,0.92273620,-3.10654500,4.52140800,0.00098425
-14.66370382,0.49212600,-3.49101900,4.15231300,0.00036909
-14.58370382,0.13841040,-3.79859700,3.95238700,0.00003076
-14.50370381,-0.10765260,-4.02928100,3.95238700,0.00003076
-14.42370381,-0.27682080,-4.18307100,4.15231300,0.00036909
-14.34370381,-0.33833660,-4.27534400,4.52140800,0.00098425
-14.26370381,-0.35371550,-4.29072300,5.02891200,0.00184547
-14.18370381,-0.30757870,-4.25996500,5.62869100,0.00286048
-14.10370381,-0.23068400,-4.18307100,6.22846900,0.00396777
-14.02370381,-0.16916830,-4.10617600,6.79749000,0.00501353
-13.94370381,-0.10765260,-4.02928100,7.28961600,0.00599779
-13.86370381,-0.04613681,-3.96776600,7.62795300,0.00685901
-13.78370380,-0.01537894,-3.93700800,7.81250000,0.00756644
-13.70370380,0.01537894,-3.92162900,7.82787800,0.00808932
-13.62370380,0.04613681,-3.92162900,7.67408900,0.00848917
-13.54370380,0.10765260,-3.93700800,7.38188900,0.00873524
-13.46370380,0.16916830,-3.93700800,6.96665800,0.00891978
-13.38370380,0.23068400,-3.95238700,6.47453200,0.00898130
-13.30370380,0.30757870,-3.95238700,5.92089000,0.00898130
-13.22370380,0.35371550,-3.93700800,5.38262700,0.00891978
-13.14370380,0.33833660,-3.93700800,4.85974400,0.00873524
-13.06370380,0.27682080,-3.92162900,4.41375400,0.00848917
-12.98370379,0.10765260,-3.92162900,4.06003900,0.00808932
-12.90370379,-0.13841040,-3.93700800,3.81397600,0.00756644
-12.82370379,-0.49212600,-3.96776600,3.66018700,0.00685901
-12.74370379,-0.92273620,-4.02928100,3.59867100,0.00599779
-12.66370379,-1.43024100,-4.10617600,3.59867100,0.00501353
-12.58370379,-1.96850400,-4.18307100,3.64480800,0.00396777
-12.50370379,-2.52214600,-4.25996500,3.72170300,0.00286048
-12.42370379,-3.01427100,-4.29072300,3.78321800,0.00184547
-12.34370379,-3.44488200,-4.27534400,3.84473400,0.00098425
-12.26370378,-3.73708200,-4.18307100,3.89087100,0.00036909
-12.18370378,-3.90625000,-4.02928100,3.92162900,0.00003076
-12.10370378,-3.90625000,-3.79859700,3.92162900,0.00003076
-12.02370378,-3.73708200,-3.49101900,3.89087100,0.00036909
-11.94370378,-3.44488200,-3.10654500,3.84473400,0.00098425
-11.86370378,-3.01427100,-2.67593500,3.78321800,0.00184547
-11.78370378,-2.52214600,-2.21456700,3.72170300,0.00286048
-11.70370378,-1.96850400,-1.73782000,3.64480800,0.00396777
-11.62370378,-1.43024100,-1.26107300,3.59867100,0.00501353
-11.54370377,-0.93811510,-0.83046260,3.58329200,0.00602854
-11.46370377,-0.49212600,-0.44598910,3.64480800,0.00688976
-11.38370377,-0.13841040,-0.12303150,3.79859700,0.00756644
-11.30370377,0.12303150,0.10765260,4.07541800,0.00805856
-11.22370377,0.30757870,0.26144190,4.45989200,0.00839690
-11.14370377,0.43061020,0.33833660,4.95201700,0.00855069
-11.06370377,0.50750490,0.33833660,5.53641700,0.00858145
-10.98370377,0.53826270,0.30757870,6.16695300,0.00851993
-10.90370377,0.53826270,0.23068400,6.78211100,0.00836614
-10.82370377,0.50750490,0.16916830,7.30499500,0.00821235
-10.74370376,0.43061020,0.09227362,7.72022600,0.00805856
-10.66370376,0.30757870,0.04613681,7.93553100,0.00793553
-10.58370376,0.12303150,0.01537894,7.93553100,0.00784326
-10.50370376,-0.13841040,0.00000000,7.68946800,0.00784326
-10.42370376,-0.46136810,-0.01537894,7.22810000,0.00793553
-10.34370376,-0.83046260,0.00000000,6.55142700,0.00805856
-10.26370376,-1.27645200,0.00000000,5.69020700,0.00821235
-10.18370376,-1.73782000,0.00000000,4.73671200,0.00836614
-10.10370376,-2.21456700,0.00000000,3.70632400,0.00851993
-10.02370375,-2.67593500,0.00000000,2.70669300,0.00858145
-9.94370375,-3.10654500,0.00000000,1.76857800,0.00858145
-9.86370375,-3.47564000,0.00000000,0.95349410,0.00842766
-9.78370375,-3.78321800,0.00000000,0.27682080,0.00808932
-9.70370375,-4.04466000,0.00000000,-0.24606300,0.00753568
-9.62370375,-4.22920700,0.00000000,-0.61515740,0.00679749
-9.54370375,-4.36761800,0.00000000,-0.86122040,0.00584400
-9.46370375,-4.44451300,0.00000000,-1.01501000,0.00470596
-9.38370375,-4.49065000,0.00000000,-1.07652500,0.00347564
-9.30370374,-4.49065000,0.00000000,-1.07652500,0.00224533
-9.22370374,-4.44451300,0.00000000,-1.01501000,0.00116880
-9.14370374,-4.36761800,0.00000000,-0.86122040,0.00030758
-9.06370374,-4.22920700,-0.01537894,-0.59977850,-0.00018455
-8.98370374,-4.04466000,0.00000000,-0.23068400,-0.00018455
-8.90370374,-3.78321800,0.01537894,0.26144190,0.00030758
-8.82370374,-3.47564000,0.04613681,0.90735720,0.00135335
-8.74370374,-3.10654500,0.09227362,1.67630400,0.00282972
-8.66370374,-2.67593500,0.16916830,2.53752400,0.00470596
-8.58370374,-2.21456700,0.23068400,3.47564000,0.00682825
-8.50370373,-1.73782000,0.30757870,4.42913300,0.00898130
-8.42370373,-1.26107300,0.33833660,5.35187000,0.01107283
-8.34370373,-0.83046260,0.33833660,6.21309000,0.01288755
-8.26370373,-0.44598910,0.26144190,6.95127900,0.01436393
-8.18370373,-0.12303150,0.10765260,7.58181600,0.01534818
-8.10370373,0.10765260,-0.12303150,8.07394100,0.01590182
-8.02370373,0.26144190,-0.44598910,8.42765700,0.01596334
-7.94370373,0.33833660,-0.83046260,8.64296200,0.01562500
-7.86370373,0.33833660,-1.26107300,8.73523500,0.01494833
-7.78370372,0.30757870,-1.73782000,8.75061400,0.01402559
-7.70370372,0.23068400,-2.21456700,8.68909800,0.01294907
-7.62370372,0.16916830,-2.67593500,8.56606700,0.01178027
-7.54370372,0.09227362,-3.10654500,8.39689900,0.01061147
-7.46370372,0.04613681,-3.47564000,8.19697300,0.00944267
-7.38370372,0.01537894,-3.78321800,7.96628900,0.00836614
-7.30370372,0.00000000,-4.04466000,7.70484700,0.00732037
-7.22370372,-0.01537894,-4.22920700,7.39726800,0.00633612
-7.14370372,0.00000000,-4.36761800,7.02817400,0.00532111
-7.06370372,0.00000000,-4.44451300,6.61294300,0.00433686
-6.98370371,0.00000000,-4.49065000,6.16695300,0.00335261
-6.90370371,0.00000000,-4.49065000,5.69020700,0.00239911
-6.82370371,0.00000000,-4.45989200,5.21345900,0.00153789
-6.74370371,0.00000000,-4.38299700,4.76747000,0.00079970
-6.66370371,0.00000000,-4.24458600,4.38299700,0.00027682
-6.58370371,0.00000000,-4.06003900,4.06003900,0.00003076
-6.50370371,0.00000000,-3.76783900,3.79859700,0.00006152
-6.42370371,0.00000000,-3.38336600,3.62942900,0.00039985
-6.34370371,0.00000000,-2.90661900,3.50639700,0.00101501
-6.26370370,0.00000000,-2.35297700,3.44488200,0.00184547
-6.18370370,0.00000000,-1.73782000,3.41412400,0.00286048
-6.10370370,0.00000000,-1.12266200,3.41412400,0.00396777
-6.02370370,0.00000000,-0.58439960,3.42950300,0.00501353
-5.94370370,0.00000000,-0.15378940,3.50639700,0.00602854
-5.86370370,0.00000000,0.09227362,3.61405000,0.00688976
-5.78370370,0.00000000,0.09227362,3.79859700,0.00756644
-5.70370370,0.00000000,-0.15378940,4.06003900,0.00805856
-5.62370370,0.00000000,-0.67667320,4.42913300,0.00839690
-5.54370369,0.00000000,-1.41486200,4.87512300,0.00855069
-5.46370369,0.00000000,-2.35297700,5.38262700,0.00858145
-5.38370369,0.00000000,-3.41412400,5.92089000,0.00851993
-5.30370369,0.00000000,-4.49065000,6.47453200,0.00836614
-5.22370369,0.00000000,-5.53641700,6.96665800,0.00821235
-5.14370369,0.00000000,-6.44377400,7.38188900,0.00805856
-5.06370369,0.00000000,-7.16658400,7.67408900,0.00793553
-4.98370369,0.00000000,-7.67408900,7.82787800,0.00787402
-4.90370369,0.00000000,-7.96628900,7.82787800,0.00784326
-4.82370369,0.00000000,-8.02780400,7.67408900,0.00784326
-4.74370368,0.00000000,-7.90477300,7.38188900,0.00787402
-4.66370368,0.00000000,-7.64333200,6.96665800,0.00787402
-4.58370368,0.00000000,-7.24347900,6.47453200,0.00790477
-4.50370368,0.00000000,-6.76673200,5.92089000,0.00790477
-4.42370368,0.00000000,-6.22846900,5.38262700,0.00790477
-4.34370368,0.00000000,-5.64407000,4.85974400,0.00787402
-4.26370368,0.01537894,-4.99815400,4.41375400,0.00784326
-4.18370368,0.00000000,-4.30610200,4.06003900,0.00784326
-4.10370368,-0.01537894,-3.52177600,3.81397600,0.00784326
-4.02370367,-0.04613681,-2.67593500,3.66018700,0.00784326
-3.94370367,-0.09227362,-1.73782000,3.59867100,0.00787402
-3.86370367,-0.16916830,-0.73818890,3.59867100,0.00790477
-3.78370367,-0.23068400,0.30757870,3.64480800,0.00790477
-3.70370367,-0.30757870,1.32258800,3.72170300,0.00790477
-3.62370367,-0.35371550,2.26070400,3.78321800,0.00787402
-3.54370367,-0.33833660,3.04502900,3.84473400,0.00787402
-3.46370367,-0.27682080,3.59867100,3.89087100,0.00784326
-3.38370367,-0.10765260,3.89087100,3.90625000,0.00784326
-3.30370366,0.13841040,3.87549200,3.92162900,0.00787402
-3.22370366,0.49212600,3.55253400,3.93700800,0.00793553
-3.14370366,0.92273620,2.93737700,3.93700800,0.00805856
-3.06370366,1.43024100,2.09153500,3.95238700,0.00821235
-2.98370366,1.96850400,1.09190400,3.95238700,0.00836614
-2.90370366,2.52214600,0.00000000,3.95238700,0.00851993
-2.82370366,3.01427100,-1.07652500,3.95238700,0.00858145
-2.74370366,3.44488200,-2.09153500,3.93700800,0.00855069
-2.66370366,3.73708200,-2.95275600,3.92162900,0.00839690
-2.58370366,3.90625000,-3.64480800,3.92162900,0.00805856
-2.50370365,3.90625000,-4.15231300,3.92162900,0.00756644
-2.42370365,3.73708200,-4.47527100,3.92162900,0.00688976
-2.34370365,3.44488200,-4.61368100,3.93700800,0.00602854
-2.26370365,3.01427100,-4.64443900,3.95238700,0.00501353
-2.18370365,2.52214600,-4.56754400,3.95238700,0.00396777
-2.10370365,1.96850400,-4.42913300,3.95238700,0.00286048
-2.02370365,1.43024100,-4.27534400,3.95238700,0.00184547
-1.94370365,0.92273620,-4.12155500,3.95238700,0.00098425
-1.86370365,0.49212600,-4.01390200,3.95238700,0.00036909
-1.78370364,0.13841040,-3.93700800,3.93700800,0.00003076
-1.70370364,-0.10765260,-3.90625000,3.90625000,0.00003076
-1.62370364,-0.27682080,-3.90625000,3.84473400,0.00036909
-1.54370364,-0.33833660,-3.92162900,3.75246000,0.00098425
-1.46370364,-0.35371550,-3.93700800,3.61405000,0.00184547
-1.38370364,-0.30757870,-3.95238700,3.47564000,0.00286048
-1.30370364,-0.23068400,-3.95238700,3.33722900,0.00396777
-1.22370364,-0.16916830,-3.93700800,3.36798700,0.00501353
-1.14370364,-0.10765260,-3.93700800,3.61405000,0.00602854
-1.06370363,-0.04613681,-3.92162900,3.92162900,0.00688976
-0.98370363,-0.01537894,-3.92162900,4.04466000,0.00756644
-0.90370363,0.01537894,-3.93700800,3.64480800,0.00805856
-0.82370363,0.04613681,-3.96776600,2.49138800,0.00839690
-0.74370363,0.10765260,-4.02928100,0.46136810,0.00855069
-0.66370363,0.16916830,-4.10617600,-2.29146100,0.00858145
-0.58370363,0.23068400,-4.18307100,-5.35187000,0.00851993
-0.50370363,0.30757870,-4.25996500,-8.04318300,0.00836614
-0.42370363,0.33833660,-4.29072300,-9.31963500,0.00821235
-0.34370363,0.32295760,-4.27534400,-8.04318300,0.00805856
-0.26370362,0.23068400,-4.19845000,-3.29109200,0.00793553
-0.18370362,0.09227362,-4.02928100,5.62869100,0.00787402
-0.10370362,-0.09227362,-3.78321800,19.03912000,0.00784326
-0.02370362,-0.30757870,-3.44488200,36.86331000,0.00784326
0.05629638,-0.53826270,-3.01427100,58.54761000,0.00787402
0.13629638,-0.78432570,-2.50676700,83.13853000,0.00787402
0.21629638,-1.03038900,-1.98388300,109.39040000,0.00790477
0.29629638,-1.30720900,-1.43024100,135.85750000,0.00790477
0.37629638,-1.70706200,-0.92273620,161.09440000,0.00787402
0.45629639,-2.32221900,-0.49212600,183.82440000,0.00787402
0.53629639,-3.02965000,-0.18454720,202.97120000,0.00784326
0.61629639,-3.67556500,-0.01537894,217.84260000,0.00784326
0.69629639,-4.07541800,-0.01537894,228.14650000,0.00787402
0.77629639,-4.06003900,-0.18454720,233.92900000,0.00793553
0.85629639,-3.53715500,-0.49212600,235.57450000,0.00805856
0.93629639,-2.56828200,-0.92273620,233.63680000,0.00821235
1.01629639,-1.41486200,-1.43024100,228.82320000,0.00836614
1.09629639,-0.49212600,-1.98388300,221.74890000,0.00851993
1.17629639,-0.55364170,-2.52214600,212.96750000,0.00855069
1.25629640,-2.33759800,-3.04502900,202.83280000,0.00848917
1.33629640,-6.16695300,-3.49101900,191.56000000,0.00830463
1.41629640,-12.04171000,-3.81397600,179.18000000,0.00799705
1.49629640,-19.76193000,-3.98314500,165.69270000,0.00765871
1.57629640,-28.92778000,-3.98314500,151.00580000,0.00732037
1.65629640,-39.09325000,-3.79859700,135.11930000,0.00698204
1.73629640,-49.88927000,-3.47564000,118.14100000,0.00664370
1.81629640,-61.13127000,-3.07578700,100.34760000,0.00633612
1.89629640,-72.94230000,-2.66055600,82.16965000,0.00590551
1.97629641,-85.96825000,-2.46063000,64.16093000,0.00513657
2.05629641,-100.97810000,-2.62979800,46.99803000,0.00387549
2.13629641,-118.34090000,-3.07578700,31.31151000,0.00224533
2.21629641,-138.19510000,-3.66018700,17.68578000,0.00067667
2.29629641,-160.46380000,-4.13693400,6.50529000,-0.00049213
2.37629641,-184.74720000,-4.32148100,-2.06077700,-0.00089198
2.45629641,-210.44540000,-4.09079700,-8.05856200,-0.00027682
2.53629641,-236.88170000,-3.47564000,-11.78026000,0.00116880
2.61629641,-263.30280000,-2.69131400,-13.73339000,0.00301427
2.69629642,-289.12400000,-2.24532500,-14.56385000,0.00433686
2.77629642,-314.13010000,-2.98351400,-14.93295000,0.00359867
2.85629642,-338.16740000,-5.73634300,-15.16363000,-0.00067667
2.93629642,-360.98970000,-10.94980000,-15.39431000,-0.00938115
3.01629642,-382.27420000,-18.71617000,-15.62500000,-0.02285310
3.09629642,-401.71320000,-28.91240000,-15.68651000,-0.04100025
3.17629642,-419.07600000,-41.12328000,-15.40969000,-0.06326894
3.25629642,-434.11660000,-54.85667000,-14.60999000,-0.08876722
3.33629642,-446.68120000,-69.58968000,-13.19513000,-0.11651080
3.41629642,-456.73900000,-84.96862000,-11.22662000,-0.14560780
3.49629643,-464.30550000,-100.85510000,-8.91978400,-0.17547370
3.57629643,-469.70350000,-117.63350000,-6.55142700,-0.20607780
3.65629643,-473.22530000,-135.79600000,-4.32148100,-0.23775840
3.73629643,-475.02460000,-155.54260000,-2.33759800,-0.27051550
3.81629643,-475.16300000,-176.96540000,-0.69205210,-0.30434920
3.89629643,-473.62510000,-199.94150000,0.58439960,-0.33913630
3.97629643,-470.28790000,-224.14800000,1.50713600,-0.37460010
4.05629643,-465.05900000,-249.12340000,2.12229300,-0.41018700
4.13629643,-457.84630000,-274.23720000,2.49138800,-0.44522020
4.21629644,-448.64970000,-298.85890000,2.72207200,-0.47883860
4.29629644,-437.48460000,-322.43480000,2.86048200,-0.51015010
4.37629644,-424.58170000,-344.64200000,2.98351400,-0.53847810
4.45629644,-410.41770000,-365.26510000,3.13730300,-0.56308440
4.53629644,-395.46930000,-383.99660000,3.38336600,-0.58329230
4.61629644,-380.22880000,-400.54440000,3.72170300,-0.59845600
4.69629644,-365.08060000,-414.67760000,4.13693400,-0.60823700
4.77629644,-350.22450000,-426.24260000,4.64443900,-0.61248150
4.85629644,-335.75290000,-435.11620000,5.16732200,-0.61122050
4.93629645,-321.54280000,-441.25240000,5.70558500,-0.60488430
5.01629645,-307.34800000,-444.72810000,6.22846900,-0.59402680
5.09629645,-292.67650000,-445.62010000,6.70521600,-0.57932450
5.17629645,-277.17460000,-444.17440000,7.12044700,-0.56163880
5.25629645,-260.94980000,-440.66800000,7.45878400,-0.54176920
5.33629645,-244.30980000,-435.22390000,7.70484700,-0.52036170
5.41629645,-227.74670000,-427.93430000,7.82787800,-0.49790850
5.49629645,-211.75260000,-418.84530000,7.82787800,-0.47468630
5.57629645,-196.74270000,-407.92630000,7.70484700,-0.45078740
5.65629645,-182.94780000,-395.19250000,7.45878400,-0.42621190
5.73629646,-170.38320000,-380.72090000,7.12044700,-0.40086740
5.81629646,-158.81830000,-364.61920000,6.70521600,-0.37475390
5.89629646,-147.62240000,-347.04110000,6.22846900,-0.34777930
5.97629646,-136.18050000,-328.34030000,5.72096400,-0.32006640
6.05629646,-124.36950000,-309.10120000,5.19808000,-0.29226130
6.13629646,-112.25090000,-289.98520000,4.69057600,-0.26513290
6.21629646,-100.11690000,-271.57660000,4.16769200,-0.23951160
6.29629646,-88.29047000,-254.36760000,3.67556500,-0.21610480
6.37629646,-77.10999000,-238.60420000,3.16806100,-0.19534330
6.45629647,-66.83685000,-224.36330000,2.67593500,-0.17741140
6.53629647,-57.59412000,-211.42960000,2.16843000,-0.16212480
6.61629647,-49.33562000,-199.46480000,1.67630400,-0.14896040
6.69629647,-41.69230000,-187.79220000,1.19955700,-0.13693410
6.77629647,-34.32578000,-175.88890000,0.76894680,-0.12518460
6.85629647,-27.25147000,-163.67800000,0.39985230,-0.11352730
6.93629647,-20.56164000,-151.32870000,0.13841040,-0.10211610
7.01629647,-14.50234000,-139.21010000,0.01537894,-0.09132013
7.09629647,-9.27349900,-127.72210000,0.03075787,-0.08160064
7.17629648,-5.07504900,-117.20290000,0.19992620,-0.07348056
7.25629648,-1.99926200,-107.91400000,0.50750490,-0.06720596
7.33629648,-0.04613681,-99.88618000,0.92273620,-0.06280757
7.41629648,0.92273620,-92.96568000,1.43024100,-0.06003937
7.49629648,1.27645200,-86.61417000,1.98388300,-0.05810162
7.57629648,1.32258800,-80.32418000,2.50676700,-0.05625615
7.65629648,1.18417800,-74.00344000,3.01427100,-0.05413386
7.73629648,0.87659940,-67.71346000,3.44488200,-0.05161171
7.81629648,0.36909450,-61.66953000,3.78321800,-0.04865896
7.89629648,-0.44598910,-56.16388000,4.02928100,-0.04542938
7.97629649,-1.64554600,-51.44254000,4.19845000,-0.04213829
8.05629649,-3.27571300,-47.64394000,4.27534400,-0.03893947
8.13629649,-5.35187000,-44.79884000,4.29072300,-0.03604823
8.21629649,-7.78174200,-42.75344000,4.25996500,-0.03349533
8.29629649,-10.36540000,-41.10789000,4.18307100,-0.03115773
8.37629649,-12.90293000,-39.41621000,4.10617600,-0.02897392
8.45629649,-15.27128000,-37.46309000,4.02928100,-0.02697466
8.53629649,-17.31668000,-35.20238000,3.96776600,-0.02528297
8.61629649,-18.96223000,-32.69562000,3.93700800,-0.02399114
8.69629650,-20.14641000,-30.05044000,3.92162900,-0.02322219
8.77629650,-20.83846000,-27.46678000,3.92162900,-0.02297613
8.85629650,-21.09990000,-25.03691000,3.93700800,-0.02334523
8.93629650,-20.96149000,-22.88386000,3.93700800,-0.02417569
9.01629650,-20.57702000,-20.96149000,3.95238700,-0.02537525
9.09629650,-20.03875000,-19.11602000,3.95238700,-0.02672859
9.17629650,-19.50049000,-17.13213000,3.95238700,-0.02805118
9.25629650,-19.13140000,-14.88681000,3.93700800,-0.02921998
9.33629650,-19.03912000,-12.31853000,3.92162900,-0.03020423
9.41629651,-19.31594000,-9.41190900,3.92162900,-0.03103469
9.49629651,-20.00800000,-6.19771100,3.92162900,-0.03171137
9.57629651,-21.09990000,-2.72207200,3.92162900,-0.03226501
9.65629651,-22.51476000,0.92273620,3.93700800,-0.03275714
9.73629651,-24.17569000,4.62906000,3.95238700,-0.03324926
9.81629651,-25.92889000,8.30462600,3.95238700,-0.03364911
9.89629651,-27.62057000,11.84178000,3.95238700,-0.03392594
9.97629651,-29.12770000,15.17901000,3.95238700,-0.03395669
10.05629651,-30.29650000,18.17790000,3.93700800,-0.03367987
10.13629651,-31.08083000,20.73080000,3.92162900,-0.03303396
10.21629652,-31.38841000,22.74545000,3.92162900,-0.03201895
10.29629652,-31.25000000,24.16031000,3.92162900,-0.03063484
10.37629652,-30.68098000,24.96001000,3.92162900,-0.02891240
10.45629652,-29.74286000,25.17532000,3.93700800,-0.02688238
10.53629652,-28.49717000,24.85236000,3.95238700,-0.02460630
10.61629652,-27.00541000,24.09879000,3.95238700,-0.02214567
10.69629652,-25.29835000,23.00689000,3.95238700,-0.01956201
10.77629652,-23.40674000,21.66892000,3.95238700,-0.01688607
10.85629652,-21.34596000,20.14641000,3.93700800,-0.01417938
10.93629653,-19.14677000,18.45472000,3.92162900,-0.01153420
11.01629653,-16.85531000,16.64001000,3.92162900,-0.00904282
11.09629653,-14.51772000,14.70226000,3.92162900,-0.00670522
11.17629653,-12.14936000,12.65686000,3.92162900,-0.00461368
11.25629653,-9.78100300,10.51919000,3.93700800,-0.00273745
11.33629653,-7.44340500,8.27386800,3.95238700,-0.00107653
11.41629653,-5.10580700,5.95164800,3.95238700,0.00039985
11.49629653,-2.79896600,3.56791300,3.95238700,0.00175320
11.57629653,-0.44598910,1.12266200,3.95238700,0.00310655
11.65629653,1.92236700,-1.39948300,3.93700800,0.00445989
11.73629654,4.32148100,-3.96776600,3.92162900,0.00581324
