Time,Channel A,Channel B,Channel C,Channel D
(ns),(mV),(mV),(mV),(V)

-15.26451683,3.78321800,-3.79859700,3.92162900,0.00784326
-15.18451682,3.42950300,-3.61405000,3.92162900,0.00784326
-15.10451682,2.99889300,-3.50639700,3.93700800,0.00787402
-15.02451682,2.50676700,-3.42950300,3.95238700,0.00790477
-14.94451682,1.98388300,-3.41412400,3.95238700,0.00790477
-14.86451682,1.43024100,-3.41412400,3.95238700,0.00790477
-14.78451682,0.92273620,-3.42950300,3.95238700,0.00790477
-14.70451682,0.49212600,-3.50639700,3.93700800,0.00787402
-14.62451682,0.16916830,-3.61405000,3.92162900,0.00784326
-14.54451682,0.01537894,-3.79859700,3.92162900,0.00784326
-14.46451681,0.03075787,-4.06003900,3.92162900,0.00784326
-14.38451681,0.23068400,-4.42913300,3.92162900,0.00784326
-14.30451681,0.58439960,-4.87512300,3.93700800,0.00787402
-14.22451681,1.09190400,-5.38262700,3.95238700,0.00790477
-14.14451681,1.67630400,-5.92089000,3.95238700,0.00790477
-14.06451681,2.27608300,-6.47453200,3.95238700,0.00790477
-13.98451681,2.86048200,-6.96665800,3.95238700,0.00790477
-13.90451681,3.35260800,-7.38188900,3.93700800,0.00787402
-13.82451681,3.70632400,-7.67408900,3.92162900,0.00784326
-13.74451680,3.89087100,-7.82787800,3.92162900,0.00784326
-13.66451680,3.89087100,-7.81250000,3.92162900,0.00784326
-13.58451680,3.70632400,-7.62795300,3.92162900,0.00784326
-13.50451680,3.35260800,-7.28961600,3.93700800,0.00787402
-13.42451680,2.86048200,-6.79749000,3.95238700,0.00790477
-13.34451680,2.27608300,-6.22846900,3.95238700,0.00790477
-13.26451680,1.67630400,-5.62869100,3.95238700,0.00790477
-13.18451680,1.07652500,-5.02891200,3.93700800,0.00790477
-13.10451680,0.58439960,-4.52140800,3.93700800,0.00787402
-13.02451680,0.21530510,-4.15231300,3.92162900,0.00784326
-12.94451679,0.01537894,-3.95238700,3.92162900,0.00784326
-12.86451679,0.03075787,-3.93700800,3.93700800,0.00784326
-12.78451679,0.26144190,-4.10617600,3.96776600,0.00784326
-12.70451679,0.67667320,-4.42913300,4.02928100,0.00787402
-12.62451679,1.24569400,-4.87512300,4.10617600,0.00790477
-12.54451679,1.90698800,-5.38262700,4.18307100,0.00790477
-12.46451679,2.58366100,-5.93626900,4.25996500,0.00790477
-12.38451679,3.19881900,-6.45915300,4.29072300,0.00790477
-12.30451679,3.69094500,-6.93590000,4.27534400,0.00787402
-12.22451678,3.96776600,-7.35113100,4.19845000,0.00784326
-12.14451678,3.99852300,-7.68946800,4.02928100,0.00784326
-12.06451678,3.76783900,-7.98166800,3.78321800,0.00784326
-11.98451678,3.26033400,-8.21235200,3.44488200,0.00784326
-11.90451678,2.52214600,-8.39689900,3.01427100,0.00787402
-11.82451678,1.59940900,-8.56606700,2.50676700,0.00790477
-11.74451678,0.53826270,-8.68909800,1.98388300,0.00790477
-11.66451678,-0.53826270,-8.75061400,1.43024100,0.00790477
-11.58451678,-1.58403000,-8.73523500,0.92273620,0.00787402
-11.50451677,-2.52214600,-8.64296200,0.49212600,0.00787402
-11.42451677,-3.26033400,-8.42765700,0.18454720,0.00784326
-11.34451677,-3.76783900,-8.07394100,0.01537894,0.00784326
-11.26451677,-4.01390200,-7.58181600,0.01537894,0.00787402
-11.18451677,-4.01390200,-6.95127900,0.18454720,0.00793553
-11.10451677,-3.78321800,-6.21309000,0.49212600,0.00805856
-11.02451677,-3.36798700,-5.35187000,0.92273620,0.00821235
-10.94451677,-2.82972400,-4.42913300,1.43024100,0.00836614
-10.86451677,-2.21456700,-3.47564000,1.98388300,0.00851993
-10.78451677,-1.58403000,-2.53752400,2.50676700,0.00858145
-10.70451676,-1.01501000,-1.66092500,3.01427100,0.00855069
-10.62451676,-0.52288380,-0.89197830,3.44488200,0.00839690
-10.54451676,-0.13841040,-0.26144190,3.78321800,0.00805856
-10.46451676,0.10765260,0.21530510,4.02928100,0.00756644
-10.38451676,0.23068400,0.52288380,4.19845000,0.00688976
-10.30451676,0.24606300,0.67667320,4.27534400,0.00602854
-10.22451676,0.18454720,0.69205210,4.29072300,0.00501353
-10.14451676,0.06151574,0.61515740,4.25996500,0.00396777
-10.06451676,-0.06151574,0.47674700,4.18307100,0.00286048
-9.98451675,-0.18454720,0.32295760,4.10617600,0.00184547
-9.90451675,-0.24606300,0.18454720,4.02928100,0.00098425
-9.82451675,-0.21530510,0.09227362,3.96776600,0.00036909
-9.74451675,-0.09227362,0.01537894,3.93700800,0.00003076
-9.66451675,0.12303150,-0.01537894,3.92162900,0.00003076
-9.58451675,0.43061020,-0.01537894,3.92162900,0.00036909
-9.50451675,0.83046260,-0.01537894,3.93700800,0.00098425
-9.42451675,1.26107300,0.00000000,3.93700800,0.00184547
-9.34451675,1.73782000,0.00000000,3.95238700,0.00286048
-9.26451674,2.21456700,0.00000000,3.95238700,0.00396777
-9.18451674,2.67593500,0.00000000,3.95238700,0.00501353
-9.10451674,3.09116600,0.00000000,3.93700800,0.00602854
-9.02451674,3.46026100,-0.01537894,3.92162900,0.00688976
-8.94451674,3.78321800,0.00000000,3.92162900,0.00756644
-8.86451674,4.04466000,0.01537894,3.92162900,0.00805856
-8.78451674,4.27534400,0.04613681,3.92162900,0.00839690
-8.70451674,4.45989200,0.09227362,3.93700800,0.00855069
-8.62451674,4.61368100,0.16916830,3.95238700,0.00858145
-8.54451674,4.73671200,0.23068400,3.95238700,0.00851993
-8.46451673,4.79822800,0.30757870,3.95238700,0.00836614
-8.38451673,4.79822800,0.33833660,3.95238700,0.00821235
-8.30451673,4.70595500,0.33833660,3.93700800,0.00805856
-8.22451673,4.50602900,0.26144190,3.92162900,0.00793553
-8.14451673,4.15231300,0.10765260,3.92162900,0.00787402
-8.06451673,3.64480800,-0.12303150,3.92162900,0.00784326
-7.98451673,2.98351400,-0.44598910,3.92162900,0.00784326
-7.90451673,2.16843000,-0.83046260,3.93700800,0.00787402
-7.82451673,1.24569400,-1.26107300,3.95238700,0.00787402
-7.74451672,0.24606300,-1.73782000,3.95238700,0.00790477
-7.66451672,-0.78432570,-2.21456700,3.95238700,0.00790477
-7.58451672,-1.75319900,-2.67593500,3.95238700,0.00787402
-7.50451672,-2.61441900,-3.10654500,3.93700800,0.00787402
-7.42451672,-3.30647100,-3.49101900,3.92162900,0.00784326
-7.34451672,-3.78321800,-3.79859700,3.92162900,0.00784326
-7.26451672,-3.99852300,-4.02928100,3.92162900,0.00787402
-7.18451672,-3.96776600,-4.18307100,3.92162900,0.00793553
-7.10451672,-3.67556500,-4.27534400,3.93700800,0.00805856
-7.02451672,-3.19881900,-4.29072300,3.95238700,0.00821235
-6.94451671,-2.58366100,-4.25996500,3.95238700,0.00836614
-6.86451671,-1.90698800,-4.18307100,3.95238700,0.00851993
-6.78451671,-1.24569400,-4.10617600,3.95238700,0.00858145
-6.70451671,-0.67667320,-4.02928100,3.93700800,0.00855069
-6.62451671,-0.26144190,-3.96776600,3.92162900,0.00836614
-6.54451671,-0.03075787,-3.92162900,3.92162900,0.00805856
-6.46451671,-0.01537894,-3.92162900,3.92162900,0.00759720
-6.38451671,-0.21530510,-3.96776600,3.92162900,0.00698204
-6.30451671,-0.58439960,-4.02928100,3.93700800,0.00621309
-6.22451670,-1.07652500,-4.10617600,3.95238700,0.00535187
-6.14451670,-1.67630400,-4.18307100,3.95238700,0.00442913
-6.06451670,-2.27608300,-4.25996500,3.95238700,0.00347564
-5.98451670,-2.86048200,-4.29072300,3.93700800,0.00252215
-5.90451670,-3.35260800,-4.27534400,3.93700800,0.00166093
-5.82451670,-3.70632400,-4.19845000,3.92162900,0.00089198
-5.74451670,-3.89087100,-4.02928100,3.92162900,0.00024606
-5.66451670,-3.90625000,-3.78321800,3.93700800,-0.00021531
-5.58451670,-3.75246000,-3.44488200,3.96776600,-0.00052288
-5.50451669,-3.44488200,-3.01427100,4.02928100,-0.00067667
-5.42451669,-3.02965000,-2.50676700,4.10617600,-0.00067667
-5.34451669,-2.52214600,-1.98388300,4.18307100,-0.00061516
-5.26451669,-1.96850400,-1.43024100,4.25996500,-0.00046137
-5.18451669,-1.43024100,-0.92273620,4.29072300,-0.00030758
-5.10451669,-0.92273620,-0.49212600,4.27534400,-0.00018455
-5.02451669,-0.47674700,-0.18454720,4.19845000,-0.00006152
-4.94451669,-0.13841040,-0.01537894,4.02928100,0.00000000
-4.86451669,0.10765260,-0.01537894,3.78321800,0.00000000
-4.78451669,0.23068400,-0.18454720,3.44488200,-0.00006152
-4.70451668,0.24606300,-0.49212600,3.01427100,-0.00018455
-4.62451668,0.18454720,-0.92273620,2.50676700,-0.00030758
-4.54451668,0.06151574,-1.43024100,1.98388300,-0.00046137
-4.46451668,-0.06151574,-1.98388300,1.43024100,-0.00061516
-4.38451668,-0.18454720,-2.50676700,0.92273620,-0.00067667
-4.30451668,-0.24606300,-3.01427100,0.49212600,-0.00067667
-4.22451668,-0.21530510,-3.44488200,0.18454720,-0.00052288
-4.14451668,-0.09227362,-3.78321800,0.01537894,-0.00021531
-4.06451668,0.12303150,-4.02928100,0.01537894,0.00024606
-3.98451667,0.43061020,-4.19845000,0.18454720,0.00089198
-3.90451667,0.83046260,-4.27534400,0.49212600,0.00166093
-3.82451667,1.26107300,-4.29072300,0.92273620,0.00252215
-3.74451667,1.73782000,-4.25996500,1.43024100,0.00347564
-3.66451667,2.21456700,-4.18307100,1.98388300,0.00442913
-3.58451667,2.67593500,-4.10617600,2.52214600,0.00535187
-3.50451667,3.10654500,-4.02928100,3.01427100,0.00621309
-3.42451667,3.49101900,-3.96776600,3.44488200,0.00698204
-3.34451667,3.79859700,-3.93700800,3.78321800,0.00759720
-3.26451666,4.02928100,-3.92162900,4.02928100,0.00805856
-3.18451666,4.18307100,-3.92162900,4.15231300,0.00836614
-3.10451666,4.27534400,-3.93700800,4.18307100,0.00855069
-3.02451666,4.29072300,-3.93700800,4.13693400,0.00858145
-2.94451666,4.25996500,-3.95238700,4.01390200,0.00851993
-2.86451666,4.18307100,-3.95238700,3.89087100,0.00836614
-2.78451666,4.10617600,-3.93700800,3.75246000,0.00821235
-2.70451666,4.02928100,-3.93700800,3.67556500,0.00805856
-2.62451666,3.96776600,-3.92162900,3.69094500,0.00793553
-2.54451666,3.92162900,-3.92162900,3.81397600,0.00787402
-2.46451665,3.92162900,-3.93700800,4.06003900,0.00784326
-2.38451665,3.96776600,-3.96776600,4.44451300,0.00784326
-2.30451665,4.02928100,-4.02928100,4.95201700,0.00787402
-2.22451665,4.10617600,-4.10617600,5.53641700,0.00787402
-2.14451665,4.18307100,-4.18307100,6.16695300,0.00790477
-2.06451665,4.25996500,-4.25996500,6.78211100,0.00790477
-1.98451665,4.29072300,-4.29072300,7.32037400,0.00787402
-1.90451665,4.27534400,-4.27534400,7.75098400,0.00787402
-1.82451665,4.18307100,-4.18307100,7.98166800,0.00784326
-1.74451664,4.02928100,-4.02928100,7.96628900,0.00784326
-1.66451664,3.79859700,-3.79859700,7.64333200,0.00787402
-1.58451664,3.49101900,-3.49101900,7.01279500,0.00793553
-1.50451664,3.10654500,-3.10654500,6.07468000,0.00805856
-1.42451664,2.67593500,-2.67593500,4.89050100,0.00821235
-1.34451664,2.21456700,-2.21456700,3.55253400,0.00836614
-1.26451664,1.73782000,-1.73782000,2.18380900,0.00851993
-1.18451664,1.26107300,-1.27645200,1.09190400,0.00858145
-1.10451664,0.83046260,-0.83046260,0.47674700,0.00855069
-1.02451663,0.43061020,-0.46136810,0.23068400,0.00839690
-0.94451663,0.12303150,-0.13841040,0.10765260,0.00805856
-0.86451663,-0.09227362,0.12303150,-0.19992620,0.00756644
-0.78451663,-0.21530510,0.30757870,-0.98425190,0.00688976
-0.70451663,-0.24606300,0.43061020,-2.41449300,0.00602854
-0.62451663,-0.18454720,0.50750490,-4.41375400,0.00501353
-0.54451663,-0.06151574,0.53826270,-6.59756400,0.00396777
-0.46451663,0.06151574,0.53826270,-8.25848900,0.00286048
-0.38451663,0.16916830,0.50750490,-8.36614100,0.00184547
-0.30451663,0.21530510,0.43061020,-5.69020700,0.00098425
-0.22451662,0.16916830,0.30757870,0.83046260,0.00036909
-0.14451662,0.06151574,0.12303150,12.05709000,0.00003076
-0.06451662,-0.07689468,-0.13841040,28.48179000,0.00003076
0.01548338,-0.21530510,-0.49212600,50.07381000,0.00036909
0.09548338,-0.35371550,-0.93811510,76.26414000,0.00098425
0.17548338,-0.46136810,-1.43024100,105.96090000,0.00184547
0.25548338,-0.55364170,-1.96850400,137.54920000,0.00286048
0.33548338,-0.69205210,-2.52214600,169.18370000,0.00396777
0.41548338,-1.03038900,-3.02965000,198.83430000,0.00501353
0.49548339,-1.69168300,-3.44488200,224.60940000,0.00602854
0.57548339,-2.58366100,-3.75246000,244.92490000,0.00688976
0.65548339,-3.52177600,-3.90625000,258.62760000,0.00756644
0.73548339,-4.25996500,-3.89087100,265.16360000,0.00805856
0.81548339,-4.59830200,-3.70632400,264.56380000,0.00839690
0.89548339,-4.42913300,-3.35260800,257.45880000,0.00855069
0.97548339,-3.81397600,-2.86048200,244.87880000,0.00858145
1.05548339,-2.99889300,-2.27608300,228.19270000,0.00851993
1.13548339,-2.47600900,-1.67630400,208.89210000,0.00836614
1.21548339,-3.13730300,-1.10728300,188.37660000,0.00818159
1.29548340,-5.84399600,-0.66129420,167.84570000,0.00793553
1.37548340,-11.01132000,-0.33833660,148.22220000,0.00778174
1.45548340,-18.74692000,-0.09227362,130.05970000,0.00775098
1.53548340,-28.88164000,0.09227362,113.55810000,0.00802781
1.61548340,-41.03100000,0.30757870,98.62511000,0.00861220
1.69548340,-54.65674000,0.55364170,85.03014000,0.00956570
1.77548340,-69.26672000,0.86122040,72.38865000,0.01079601
1.85548340,-84.49187000,1.16879900,60.37770000,0.01218012
1.93548340,-100.25530000,1.36872500,48.78198000,0.01337968
2.01548341,-116.95680000,1.16879900,37.53998000,0.01393332
2.09548341,-135.18080000,0.35371550,26.79011000,0.01337968
2.17548341,-155.11190000,-1.06114600,16.79380000,0.01174951
2.25548341,-176.81160000,-2.90661900,7.87401500,0.00925812
2.33548341,-200.11070000,-4.95201700,0.36909450,0.00636688
2.41548341,-224.65550000,-6.93590000,-5.49028000,0.00347564
2.49548341,-249.92310000,-8.65834000,-9.59645700,0.00089198
2.57548341,-275.29830000,-10.13472000,-12.04171000,-0.00132259
2.65548341,-300.19680000,-11.53420000,-13.07210000,-0.00347564
2.73548342,-324.12650000,-13.33354000,-13.22589000,-0.00639764
2.81548342,-346.91800000,-16.42470000,-13.01058000,-0.01150344
2.89548342,-368.52550000,-21.73044000,-12.67224000,-0.02030020
2.97548342,-388.71800000,-29.71210000,-12.33391000,-0.03364911
3.05548342,-407.23420000,-40.58501000,-11.98019000,-0.05185778
3.13548342,-423.79730000,-54.21075000,-11.51882000,-0.07480315
3.21548342,-438.19200000,-70.18946000,-10.79601000,-0.10183930
3.29548342,-450.17220000,-87.96751000,-9.73486600,-0.13210510
3.37548342,-459.63020000,-106.92970000,-8.24311000,-0.16452390
3.45548342,-466.50460000,-126.53790000,-6.35150100,-0.19811150
3.53548343,-470.88760000,-146.43820000,-4.24458600,-0.23219120
3.61548343,-473.02530000,-166.76920000,-2.12229300,-0.26670150
3.69548343,-473.30210000,-187.76140000,-0.10765260,-0.30179630
3.77548343,-471.87190000,-209.44570000,1.70706200,-0.33753690
3.85548343,-468.85760000,-231.80670000,3.26033400,-0.37386200
3.93548343,-464.29010000,-254.67520000,4.52140800,-0.41070990
4.01548343,-458.12310000,-277.77440000,5.49028000,-0.44777310
4.09548343,-450.27990000,-300.73510000,6.22846900,-0.48455950
4.17548343,-440.71420000,-323.06530000,6.76673200,-0.52036170
4.25548344,-429.39530000,-344.30360000,7.15120500,-0.55425690
4.33548344,-416.30780000,-363.98860000,7.41264700,-0.58532230
4.41548344,-401.66710000,-381.90510000,7.61257400,-0.61263530
4.49548344,-385.91900000,-397.86850000,7.75098400,-0.63533470
4.57548344,-369.60200000,-411.61720000,7.84325700,-0.65258980
4.65548344,-353.23880000,-422.89000000,7.85863600,-0.66369340
4.73548344,-337.24470000,-431.50220000,7.79712100,-0.66824560
4.81548344,-321.91190000,-437.28470000,7.62795300,-0.66606180
4.89548344,-307.31730000,-440.19130000,7.35113100,-0.65744950
4.97548345,-293.32240000,-440.26820000,6.95127900,-0.64293180
5.05548345,-279.66600000,-437.65370000,6.47453200,-0.62330830
5.13548345,-265.74800000,-432.54800000,5.92089000,-0.59962480
5.21548345,-251.09190000,-425.31990000,5.38262700,-0.57298850
5.29548345,-235.71300000,-416.35390000,4.85974400,-0.54447590
5.37548345,-219.85730000,-406.00390000,4.41375400,-0.51504060
5.45548345,-203.94010000,-394.46970000,4.06003900,-0.48542080
5.53548345,-188.45350000,-381.92050000,3.81397600,-0.45604700
5.61548345,-173.79740000,-368.43320000,3.66018700,-0.42704230
5.69548345,-160.24850000,-354.02310000,3.59867100,-0.39840670
5.77548346,-147.83770000,-338.64420000,3.59867100,-0.36995570
5.85548346,-136.44190000,-322.34250000,3.64480800,-0.34150470
5.93548346,-125.44600000,-305.02580000,3.72170300,-0.31274600
6.01548346,-114.32700000,-286.84790000,3.78321800,-0.28361840
6.09548346,-102.96200000,-268.27010000,3.84473400,-0.25467520
6.17548346,-91.45853000,-249.81540000,3.89087100,-0.22665480
6.25548346,-80.07812000,-232.05280000,3.90625000,-0.20044910
6.33548346,-69.12832000,-215.44350000,3.92162900,-0.17682700
6.41548346,-58.91670000,-200.32600000,3.93700800,-0.15640380
6.49548347,-49.68934000,-186.77720000,3.93700800,-0.13930240
6.57548347,-41.52312000,-174.65860000,3.95238700,-0.12539990
6.65548347,-34.37192000,-163.67800000,3.95238700,-0.11408100
6.73548347,-27.89739000,-153.15880000,3.95238700,-0.10423840
6.81548347,-21.76119000,-142.57810000,3.93700800,-0.09479577
6.89548347,-15.96334000,-131.85900000,3.93700800,-0.08538385
6.97548347,-10.62684000,-121.17060000,3.92162900,-0.07606422
7.05548347,-5.95164800,-110.82060000,3.92162900,-0.06702141
7.13548347,-2.13767200,-101.20880000,3.93700800,-0.05874754
7.21548348,0.63053640,-92.68884000,3.96776600,-0.05164247
7.29548348,2.27608300,-85.42999000,4.02928100,-0.04607530
7.37548348,2.84510300,-79.49372000,4.10617600,-0.04210753
7.45548348,2.47600900,-74.66473000,4.18307100,-0.03958539
7.53548348,1.52251500,-70.43552000,4.25996500,-0.03795522
7.61548348,0.35371550,-66.23708000,4.29072300,-0.03650960
7.69548348,-0.89197830,-61.91560000,4.27534400,-0.03509473
7.77548348,-2.12229300,-57.50184000,4.18307100,-0.03361836
7.85548348,-3.32185000,-53.10347000,4.02928100,-0.03211122
7.93548348,-4.53678600,-48.96653000,3.79859700,-0.03069636
8.01548349,-5.82861700,-45.29097000,3.49101900,-0.02955832
8.09548349,-7.27423700,-42.26131000,3.10654500,-0.02882013
8.17548349,-8.88902600,-39.89296000,2.67593500,-0.02854331
8.25548349,-10.67298000,-38.10900000,2.21456700,-0.02869710
8.33548349,-12.50307000,-36.60187000,1.73782000,-0.02912771
8.41548349,-14.31779000,-35.00246000,1.27645200,-0.02955832
8.49548349,-16.04023000,-33.17236000,0.83046260,-0.03001969
8.57548349,-17.62426000,-31.05007000,0.46136810,-0.03051181
8.65548349,-19.00837000,-28.68172000,0.13841040,-0.03106545
8.73548350,-20.14641000,-26.20571000,-0.12303150,-0.03174213
8.81548350,-20.99225000,-23.74508000,-0.30757870,-0.03257259
8.89548350,-21.56127000,-21.40748000,-0.43061020,-0.03358760
8.97548350,-21.88423000,-19.26981000,-0.50750490,-0.03475640
9.05548350,-22.00726000,-17.30130000,-0.53826270,-0.03604823
9.13548350,-22.00726000,-15.39431000,-0.53826270,-0.03724778
9.21548350,-22.00726000,-13.34892000,-0.50750490,-0.03829355
9.29548350,-22.13029000,-11.04208000,-0.43061020,-0.03903174
9.37548350,-22.46863000,-8.44303500,-0.30757870,-0.03940084
9.45548351,-23.09916000,-5.50565900,-0.12303150,-0.03937008
9.53548351,-24.05266000,-2.26070400,0.13841040,-0.03897022
9.61548351,-25.34449000,1.21493600,0.46136810,-0.03820128
9.69548351,-26.89776000,4.87512300,0.83046260,-0.03709400
9.77548351,-28.62020000,8.58144600,1.27645200,-0.03570989
9.85548351,-30.41954000,12.25701000,1.73782000,-0.03411048
9.93548351,-32.11122000,15.79417000,2.21456700,-0.03235728
10.01548351,-33.57222000,19.11602000,2.67593500,-0.03045030
10.09548351,-34.66412000,22.09953000,3.10654500,-0.02845103
10.17548351,-35.29466000,24.63705000,3.49101900,-0.02642101
10.25548352,-35.43307000,26.65170000,3.79859700,-0.02448327
10.33548352,-35.04860000,28.11270000,4.02928100,-0.02260704
10.41548352,-34.20275000,29.02005000,4.18307100,-0.02091535
10.49548352,-32.94168000,29.38915000,4.27534400,-0.01931594
10.57548352,-31.32689000,29.28149000,4.29072300,-0.01787033
10.65548352,-29.45066000,28.75861000,4.25996500,-0.01648622
10.73548352,-27.34375000,27.86663000,4.18307100,-0.01513287
10.81548352,-25.02153000,26.65170000,4.10617600,-0.01368725
10.89548352,-22.51476000,25.09842000,4.02928100,-0.01214936
10.97548353,-19.85421000,23.17606000,3.96776600,-0.01048843
11.05548353,-17.10138000,20.89997000,3.93700800,-0.00873524
11.13548353,-14.27165000,18.23942000,3.92162900,-0.00695128
11.21548353,-11.39579000,15.20977000,3.92162900,-0.00516732
11.29548353,-8.51993000,11.87254000,3.93700800,-0.00341412
11.37548353,-5.65944900,8.25848900,3.93700800,-0.00178396
11.45548353,-2.82972400,4.45989200,3.95238700,-0.00021531
11.53548353,-0.03075787,0.56902060,3.95238700,0.00129183
11.61548353,2.73745100,-3.30647100,3.95238700,0.00276821
11.69548353,5.45952300,-7.12044700,3.93700800,0.00427534
