Time,Channel A,Channel B,Channel C,Channel D
(ns),(mV),(mV),(mV),(V)

-15.33913083,4.01390200,-4.04466000,3.89087100,0.00003076
-15.25913082,3.99852300,-4.22920700,3.70632400,0.00036909
-15.17913082,3.78321800,-4.36761800,3.35260800,0.00098425
-15.09913082,3.36798700,-4.44451300,2.86048200,0.00184547
-15.01913082,2.82972400,-4.49065000,2.27608300,0.00286048
-14.93913082,2.21456700,-4.49065000,1.67630400,0.00396777
-14.85913082,1.59940900,-4.45989200,1.09190400,0.00501353
-14.77913082,1.01501000,-4.36761800,0.59977850,0.00599779
-14.69913082,0.53826270,-4.24458600,0.23068400,0.00685901
-14.61913082,0.15378940,-4.04466000,0.03075787,0.00756644
-14.53913081,-0.12303150,-3.78321800,0.00000000,0.00808932
-14.45913081,-0.27682080,-3.42950300,0.13841040,0.00848917
-14.37913081,-0.35371550,-2.99889300,0.39985230,0.00873524
-14.29913081,-0.35371550,-2.50676700,0.75356790,0.00891978
-14.21913081,-0.30757870,-1.98388300,1.19955700,0.00898130
-14.13913081,-0.23068400,-1.43024100,1.67630400,0.00898130
-14.05913081,-0.16916830,-0.92273620,2.16843000,0.00891978
-13.97913081,-0.09227362,-0.49212600,2.66055600,0.00876599
-13.89913081,-0.04613681,-0.18454720,3.16806100,0.00848917
-13.81913080,-0.01537894,-0.01537894,3.66018700,0.00812008
-13.73913080,0.00000000,-0.01537894,4.18307100,0.00753568
-13.65913080,0.01537894,-0.18454720,4.72133400,0.00676673
-13.57913080,0.00000000,-0.49212600,5.30573300,0.00581324
-13.49913080,0.00000000,-0.92273620,5.89013200,0.00470596
-13.41913080,0.00000000,-1.43024100,6.47453200,0.00347564
-13.33913080,0.00000000,-1.98388300,7.01279500,0.00224533
-13.25913080,0.00000000,-2.50676700,7.47416300,0.00116880
-13.17913080,0.00000000,-2.99889300,7.81250000,0.00030758
-13.09913080,0.00000000,-3.42950300,7.98166800,-0.00018455
-13.01913079,0.00000000,-3.78321800,7.95091000,-0.00018455
-12.93913079,0.00000000,-4.04466000,7.67408900,0.00030758
-12.85913079,0.00000000,-4.24458600,7.18196300,0.00135335
-12.77913079,0.00000000,-4.36761800,6.44377400,0.00282972
-12.69913079,0.00000000,-4.45989200,5.53641700,0.00470596
-12.61913079,0.00000000,-4.49065000,4.49065000,0.00682825
-12.53913079,0.00000000,-4.49065000,3.41412400,0.00898130
-12.45913079,0.00000000,-4.44451300,2.35297700,0.01107283
-12.37913079,0.00000000,-4.36761800,1.41486200,0.01291831
-12.29913078,0.01537894,-4.22920700,0.67667320,0.01436393
-12.21913078,0.00000000,-4.04466000,0.15378940,0.01537894
-12.13913078,-0.01537894,-3.78321800,-0.09227362,0.01587106
-12.05913078,-0.04613681,-3.47564000,-0.09227362,0.01587106
-11.97913078,-0.09227362,-3.10654500,0.15378940,0.01544045
-11.89913078,-0.16916830,-2.67593500,0.58439960,0.01464075
-11.81913078,-0.23068400,-2.21456700,1.12266200,0.01356422
-11.73913078,-0.30757870,-1.73782000,1.73782000,0.01233391
-11.65913078,-0.35371550,-1.26107300,2.35297700,0.01107283
-11.57913077,-0.33833660,-0.83046260,2.92199800,0.00990404
-11.49913077,-0.27682080,-0.44598910,3.39874500,0.00888903
-11.41913077,-0.10765260,-0.12303150,3.76783900,0.00812008
-11.33913077,0.13841040,0.10765260,4.04466000,0.00762795
-11.25913077,0.49212600,0.26144190,4.21382900,0.00738189
-11.17913077,0.92273620,0.33833660,4.29072300,0.00735113
-11.09913077,1.43024100,0.33833660,4.29072300,0.00750492
-11.01913077,1.96850400,0.30757870,4.25996500,0.00778174
-10.93913077,2.52214600,0.23068400,4.18307100,0.00802781
-10.85913077,3.01427100,0.15378940,4.10617600,0.00827387
-10.77913076,3.44488200,0.09227362,4.02928100,0.00836614
-10.69913076,3.73708200,0.03075787,3.96776600,0.00830463
-10.61913076,3.90625000,0.00000000,3.93700800,0.00805856
-10.53913076,3.90625000,0.00000000,3.92162900,0.00756644
-10.45913076,3.73708200,0.03075787,3.92162900,0.00688976
-10.37913076,3.44488200,0.09227362,3.93700800,0.00602854
-10.29913076,3.01427100,0.15378940,3.93700800,0.00504429
-10.21913076,2.52214600,0.23068400,3.95238700,0.00396777
-10.13913076,1.96850400,0.30757870,3.95238700,0.00286048
-10.05913075,1.43024100,0.35371550,3.95238700,0.00184547
-9.97913075,0.92273620,0.33833660,3.93700800,0.00098425
-9.89913075,0.49212600,0.27682080,3.92162900,0.00036909
-9.81913075,0.13841040,0.10765260,3.92162900,0.00003076
-9.73913075,-0.10765260,-0.13841040,3.92162900,0.00003076
-9.65913075,-0.27682080,-0.49212600,3.92162900,0.00036909
-9.57913075,-0.33833660,-0.92273620,3.93700800,0.00098425
-9.49913075,-0.35371550,-1.43024100,3.95238700,0.00184547
-9.41913075,-0.30757870,-1.96850400,3.95238700,0.00286048
-9.33913074,-0.23068400,-2.52214600,3.95238700,0.00396777
-9.25913074,-0.16916830,-3.02965000,3.95238700,0.00501353
-9.17913074,-0.09227362,-3.44488200,3.93700800,0.00602854
-9.09913074,-0.04613681,-3.75246000,3.92162900,0.00688976
-9.01913074,-0.01537894,-3.90625000,3.92162900,0.00756644
-8.93913074,0.00000000,-3.89087100,3.92162900,0.00805856
-8.85913074,0.01537894,-3.70632400,3.92162900,0.00839690
-8.77913074,0.00000000,-3.35260800,3.93700800,0.00855069
-8.69913074,0.00000000,-2.86048200,3.95238700,0.00858145
-8.61913074,0.00000000,-2.27608300,3.95238700,0.00851993
-8.53913073,0.00000000,-1.67630400,3.95238700,0.00836614
-8.45913073,0.00000000,-1.09190400,3.95238700,0.00821235
-8.37913073,0.00000000,-0.58439960,3.93700800,0.00805856
-8.29913073,0.00000000,-0.21530510,3.92162900,0.00793553
-8.21913073,0.00000000,-0.03075787,3.92162900,0.00787402
-8.13913073,0.00000000,-0.03075787,3.92162900,0.00784326
-8.05913073,0.00000000,-0.21530510,3.92162900,0.00784326
-7.97913073,0.00000000,-0.58439960,3.93700800,0.00787402
-7.89913073,0.00000000,-1.09190400,3.95238700,0.00787402
-7.81913072,0.00000000,-1.67630400,3.95238700,0.00790477
-7.73913072,0.00000000,-2.27608300,3.95238700,0.00790477
-7.65913072,0.00000000,-2.86048200,3.95238700,0.00790477
-7.57913072,0.00000000,-3.35260800,3.93700800,0.00787402
-7.49913072,0.00000000,-3.70632400,3.92162900,0.00784326
-7.41913072,0.00000000,-3.89087100,3.92162900,0.00784326
-7.33913072,0.00000000,-3.90625000,3.92162900,0.00784326
-7.25913072,0.00000000,-3.75246000,3.92162900,0.00784326
-7.17913072,0.00000000,-3.44488200,3.93700800,0.00787402
-7.09913072,0.00000000,-3.02965000,3.95238700,0.00790477
-7.01913071,0.00000000,-2.52214600,3.95238700,0.00790477
-6.93913071,0.00000000,-1.96850400,3.95238700,0.00790477
-6.85913071,0.00000000,-1.43024100,3.95238700,0.00790477
-6.77913071,0.00000000,-0.92273620,3.93700800,0.00787402
-6.69913071,0.01537894,-0.49212600,3.92162900,0.00784326
-6.61913071,0.00000000,-0.13841040,3.92162900,0.00784326
-6.53913071,-0.01537894,0.10765260,3.92162900,0.00784326
-6.45913071,-0.04613681,0.27682080,3.92162900,0.00784326
-6.37913071,-0.09227362,0.33833660,3.93700800,0.00787402
-6.29913070,-0.16916830,0.35371550,3.95238700,0.00790477
-6.21913070,-0.23068400,0.30757870,3.95238700,0.00790477
-6.13913070,-0.30757870,0.23068400,3.95238700,0.00790477
-6.05913070,-0.35371550,0.15378940,3.95238700,0.00790477
-5.97913070,-0.35371550,0.09227362,3.93700800,0.00787402
-5.89913070,-0.27682080,0.03075787,3.92162900,0.00784326
-5.81913070,-0.12303150,0.00000000,3.92162900,0.00784326
-5.73913070,0.15378940,0.00000000,3.92162900,0.00784326
-5.65913070,0.53826270,0.03075787,3.92162900,0.00784326
-5.57913069,1.01501000,0.09227362,3.93700800,0.00787402
-5.49913069,1.59940900,0.15378940,3.95238700,0.00790477
-5.41913069,2.21456700,0.23068400,3.95238700,0.00790477
-5.33913069,2.82972400,0.30757870,3.95238700,0.00790477
-5.25913069,3.36798700,0.33833660,3.95238700,0.00790477
-5.17913069,3.78321800,0.33833660,3.93700800,0.00787402
-5.09913069,4.01390200,0.26144190,3.92162900,0.00784326
-5.01913069,4.01390200,0.10765260,3.92162900,0.00784326
-4.93913069,3.76783900,-0.12303150,3.92162900,0.00784326
-4.85913069,3.26033400,-0.44598910,3.92162900,0.00784326
-4.77913068,2.52214600,-0.83046260,3.93700800,0.00787402
-4.69913068,1.58403000,-1.26107300,3.95238700,0.00790477
-4.61913068,0.53826270,-1.73782000,3.95238700,0.00790477
-4.53913068,-0.53826270,-2.21456700,3.95238700,0.00790477
-4.45913068,-1.58403000,-2.67593500,3.95238700,0.00790477
-4.37913068,-2.52214600,-3.10654500,3.93700800,0.00787402
-4.29913068,-3.26033400,-3.47564000,3.93700800,0.00784326
-4.21913068,-3.76783900,-3.78321800,3.92162900,0.00784326
-4.13913068,-4.01390200,-4.04466000,3.90625000,0.00784326
-4.05913067,-4.01390200,-4.22920700,3.89087100,0.00784326
-3.97913067,-3.78321800,-4.36761800,3.84473400,0.00787402
-3.89913067,-3.36798700,-4.44451300,3.78321800,0.00790477
-3.81913067,-2.82972400,-4.49065000,3.72170300,0.00790477
-3.73913067,-2.21456700,-4.49065000,3.64480800,0.00790477
-3.65913067,-1.59940900,-4.44451300,3.59867100,0.00787402
-3.57913067,-1.01501000,-4.36761800,3.59867100,0.00787402
-3.49913067,-0.53826270,-4.22920700,3.66018700,0.00784326
-3.41913067,-0.15378940,-4.04466000,3.81397600,0.00784326
-3.33913066,0.12303150,-3.78321800,4.06003900,0.00787402
-3.25913066,0.27682080,-3.47564000,4.41375400,0.00793553
-3.17913066,0.35371550,-3.10654500,4.85974400,0.00805856
-3.09913066,0.35371550,-2.67593500,5.38262700,0.00821235
-3.01913066,0.30757870,-2.21456700,5.92089000,0.00836614
-2.93913066,0.23068400,-1.73782000,6.47453200,0.00851993
-2.85913066,0.16916830,-1.26107300,6.96665800,0.00858145
-2.77913066,0.09227362,-0.83046260,7.38188900,0.00855069
-2.69913066,0.04613681,-0.44598910,7.67408900,0.00839690
-2.61913066,0.01537894,-0.12303150,7.82787800,0.00805856
-2.53913065,0.00000000,0.10765260,7.82787800,0.00756644
-2.45913065,-0.01537894,0.26144190,7.67408900,0.00688976
-2.37913065,0.00000000,0.33833660,7.38188900,0.00602854
-2.29913065,0.00000000,0.33833660,6.96665800,0.00501353
-2.21913065,0.00000000,0.30757870,6.47453200,0.00396777
-2.13913065,0.00000000,0.23068400,5.92089000,0.00286048
-2.05913065,0.00000000,0.15378940,5.38262700,0.00184547
-1.97913065,0.00000000,0.09227362,4.87512300,0.00098425
-1.89913065,-0.01537894,0.03075787,4.42913300,0.00033834
-1.81913064,0.00000000,0.00000000,4.06003900,0.00003076
-1.73913064,0.01537894,0.00000000,3.79859700,0.00006152
-1.65913064,0.04613681,0.03075787,3.61405000,0.00046137
-1.57913064,0.09227362,0.09227362,3.50639700,0.00116880
-1.49913064,0.16916830,0.15378940,3.42950300,0.00218381
-1.41913064,0.23068400,0.23068400,3.41412400,0.00335261
-1.33913064,0.30757870,0.30757870,3.41412400,0.00455217
-1.25913064,0.35371550,0.35371550,3.52177600,0.00572097
-1.17913064,0.35371550,0.33833660,3.79859700,0.00670522
-1.09913063,0.27682080,0.27682080,4.06003900,0.00741265
-1.01913063,0.12303150,0.10765260,4.09079700,0.00778174
-0.93913063,-0.15378940,-0.13841040,3.59867100,0.00778174
-0.85913063,-0.53826270,-0.49212600,2.39911400,0.00741265
-0.77913063,-1.01501000,-0.92273620,0.39985230,0.00670522
-0.69913063,-1.59940900,-1.43024100,-2.24532500,0.00572097
-0.61913063,-2.21456700,-1.96850400,-5.19808000,0.00455217
-0.53913063,-2.82972400,-2.52214600,-7.82787800,0.00335261
-0.45913063,-3.36798700,-3.02965000,-9.16584600,0.00218381
-0.37913063,-3.79859700,-3.44488200,-8.21235200,0.00116880
-0.29913062,-4.02928100,-3.75246000,-4.30610200,0.00046137
-0.21913062,-4.02928100,-3.90625000,2.93737700,0.00006152
-0.13913062,-3.73708200,-3.89087100,13.57960000,0.00003076
-0.05913062,-3.16806100,-3.70632400,27.35913000,0.00033834
0.02086938,-2.32221900,-3.35260800,43.73769000,0.00098425
0.10086938,-1.26107300,-2.86048200,62.05401000,0.00184547
0.18086938,-0.07689468,-2.27608300,81.52374000,0.00286048
0.26086938,1.15342000,-1.67630400,101.48560000,0.00396777
0.34086938,2.22994600,-1.09190400,121.43210000,0.00501353
0.42086939,3.04502900,-0.58439960,141.07100000,0.00602854
0.50086939,3.55253400,-0.21530510,160.27930000,0.00688976
0.58086939,3.84473400,-0.03075787,179.04160000,0.00756644
0.66086939,3.98314500,-0.03075787,197.43480000,0.00805856
0.74086939,4.12155500,-0.21530510,215.50500000,0.00839690
0.82086939,4.30610200,-0.58439960,233.22160000,0.00855069
0.90086939,4.56754400,-1.09190400,250.32300000,0.00858145
0.98086939,4.79822800,-1.67630400,266.33240000,0.00851993
1.06086939,4.78284900,-2.27608300,280.54260000,0.00836614
1.14086939,4.02928100,-2.86048200,292.07680000,0.00821235
1.22086940,2.10691400,-3.36798700,299.95080000,0.00802781
1.30086940,-1.06114600,-3.73708200,303.24190000,0.00787402
1.38086940,-5.35187000,-3.90625000,301.24260000,0.00784326
1.46086940,-10.50381000,-3.87549200,293.50700000,0.00790477
1.54086940,-16.11712000,-3.62942900,280.01970000,0.00808932
1.62086940,-21.91498000,-3.16806100,261.16510000,0.00842766
1.70086940,-27.71284000,-2.53752400,237.80450000,0.00885827
1.78086940,-33.63373000,-1.81471400,211.09130000,0.00931964
1.86086940,-40.07751000,-1.06114600,182.44030000,0.00971949
1.94086941,-47.96690000,-0.46136810,153.35870000,0.00984252
2.02086941,-58.34768000,-0.13841040,125.27680000,0.00950418
2.10086941,-71.77350000,-0.03075787,99.42482000,0.00882751
2.18086941,-88.49040000,-0.03075787,76.69476000,0.00812008
2.26086941,-108.40610000,0.06151574,57.60949000,0.00765871
2.34086941,-131.10540000,0.39985230,42.24594000,0.00778174
2.42086941,-155.92700000,1.07652500,30.34264000,0.00858145
2.50086941,-182.05580000,2.06077700,21.33058000,0.01002707
2.58086941,-208.73830000,3.13730300,14.47158000,0.01168799
2.66086942,-235.31310000,3.93700800,8.93516300,0.01288755
2.74086942,-261.59570000,3.72170300,3.96776600,0.01230315
2.82086942,-287.52460000,1.78395700,-0.78432570,0.00873524
2.90086942,-312.83830000,-2.13767200,-5.39800600,0.00163017
2.98086942,-337.29080000,-8.08932000,-9.76562400,-0.00907357
3.06086942,-360.57450000,-15.85568000,-13.59498000,-0.02306841
3.14086942,-382.41260000,-25.05229000,-16.59387000,-0.03970842
3.22086942,-402.51290000,-35.26390000,-18.51624000,-0.05825541
3.30086942,-420.62930000,-46.10605000,-19.25443000,-0.07806348
3.38086942,-436.54650000,-57.40957000,-18.88533000,-0.09870202
3.46086943,-450.17220000,-69.29749000,-17.80881000,-0.12026330
3.54086943,-461.69100000,-82.35420000,-16.45546000,-0.14360850
3.62086943,-471.24140000,-97.33328000,-15.04060000,-0.16975270
3.70086943,-478.83860000,-114.60380000,-13.67187000,-0.19937250
3.78086943,-484.40570000,-134.35040000,-12.39542000,-0.23283710
3.86086943,-487.78910000,-156.46530000,-11.14973000,-0.27014640
3.94086943,-488.85030000,-180.62560000,-9.85789800,-0.31086980
4.02086943,-487.46610000,-206.26230000,-8.45841400,-0.35414620
4.10086943,-483.54450000,-232.63720000,-6.88976300,-0.39877580
4.18086944,-477.17760000,-259.04280000,-5.13656500,-0.44340550
4.26086944,-468.45780000,-284.78710000,-3.30647100,-0.48658960
4.34086944,-457.76940000,-309.54720000,-1.47637800,-0.52715920
4.42086944,-445.63540000,-333.07700000,0.27682080,-0.56419170
4.50086944,-432.50180000,-355.03810000,1.89160900,-0.59667200
4.58086944,-418.81460000,-375.13840000,3.30647100,-0.62392350
4.66086944,-404.85050000,-393.10100000,4.47527100,-0.64548470
4.74086944,-390.74800000,-408.72600000,5.41338600,-0.66117130
4.82086944,-376.55330000,-421.87500000,6.10543700,-0.67113680
4.90086945,-362.11240000,-432.47110000,6.59756400,-0.67562750
4.98086945,-347.25640000,-440.46810000,6.90514200,-0.67510460
5.06086945,-331.64680000,-445.92760000,7.12044700,-0.67009100
5.14086945,-315.08360000,-449.03420000,7.27423700,-0.66110970
5.22086945,-297.84380000,-449.97230000,7.41264700,-0.64868350
5.30086945,-280.35800000,-448.83420000,7.58181600,-0.63305850
5.38086945,-263.22590000,-445.62010000,7.75098400,-0.61445000
5.46086945,-246.97030000,-440.29900000,7.93553100,-0.59288880
5.54086945,-231.97590000,-432.82480000,8.12007800,-0.56840550
5.62086945,-218.47320000,-423.16680000,8.27386800,-0.54103100
5.70086946,-206.33920000,-411.37120000,8.39689900,-0.51094980
5.78086946,-195.26640000,-397.59160000,8.44303500,-0.47853100
5.86086946,-184.47030000,-381.99740000,8.44303500,-0.44420520
5.94086946,-173.24370000,-364.94210000,8.39689900,-0.40864910
6.02086946,-161.34040000,-347.02570000,8.30462600,-0.37293920
6.10086946,-148.82200000,-328.80160000,8.16621500,-0.33824430
6.18086946,-135.91900000,-310.80830000,7.96628900,-0.30554870
6.26086946,-123.00070000,-293.44550000,7.70484700,-0.27574430
6.34086946,-110.46690000,-276.94390000,7.39726800,-0.24926180
6.42086947,-98.59436000,-261.36500000,7.04355200,-0.22616260
6.50086947,-87.56766000,-246.57050000,6.61294300,-0.20613930
6.58086947,-77.40218000,-232.29880000,6.16695300,-0.18848430
6.66086947,-67.71346000,-218.04260000,5.69020700,-0.17209030
6.74086947,-58.17851000,-203.44790000,5.21345900,-0.15600390
6.82086947,-48.81274000,-188.63800000,4.76747000,-0.13994830
6.90086947,-39.80069000,-173.92040000,4.36761800,-0.12416950
6.98086947,-31.37303000,-159.72560000,4.04466000,-0.10906740
7.06086947,-23.79121000,-146.53050000,3.81397600,-0.09528790
7.14086948,-17.25517000,-134.68870000,3.66018700,-0.08338460
7.22086948,-11.91868000,-124.41560000,3.59867100,-0.07366510
7.30086948,-7.76636300,-115.68040000,3.59867100,-0.06622170
7.38086948,-4.67519700,-108.20620000,3.64480800,-0.06080832
7.46086948,-2.27608300,-101.37790000,3.72170300,-0.05656373
7.54086948,-0.26144190,-94.58046000,3.78321800,-0.05265748
7.62086948,1.43024100,-87.65993000,3.84473400,-0.04878199
7.70086948,2.78358700,-80.67790000,3.89087100,-0.04487574
7.78086948,3.67556500,-73.86503000,3.90625000,-0.04103100
7.86086948,3.99852300,-67.49815000,3.92162900,-0.03752461
7.94086949,3.62942900,-61.85408000,3.93700800,-0.03460261
8.02086949,2.49138800,-57.14812000,3.93700800,-0.03244956
8.10086949,0.63053640,-53.41105000,3.95238700,-0.03118848
8.18086949,-1.83009300,-50.53518000,3.95238700,-0.03069636
8.26086949,-4.61368100,-48.05917000,3.95238700,-0.03069636
8.34086949,-7.45878400,-45.56779000,3.95238700,-0.03081939
8.42086949,-10.18086000,-42.87647000,3.93700800,-0.03094242
8.50086949,-12.64149000,-39.93909000,3.92162900,-0.03109621
8.58086949,-14.76378000,-36.86331000,3.92162900,-0.03125000
8.66086950,-16.51698000,-33.77214000,3.92162900,-0.03155758
8.74086950,-17.90108000,-30.85015000,3.92162900,-0.03201895
8.82086950,-18.94685000,-28.22035000,3.93700800,-0.03278789
8.90086950,-19.73118000,-25.97502000,3.95238700,-0.03377214
8.98086950,-20.33095000,-24.06804000,3.95238700,-0.03497170
9.06086950,-20.80770000,-22.28408000,3.95238700,-0.03617126
9.14086950,-21.25369000,-20.39247000,3.95238700,-0.03727854
9.22086950,-21.74582000,-18.27018000,3.93700800,-0.03813976
9.30086950,-22.34559000,-15.87106000,3.93700800,-0.03875492
9.38086951,-23.09916000,-13.19513000,3.92162900,-0.03912402
9.46086951,-24.00652000,-10.28851000,3.90625000,-0.03924705
9.54086951,-25.05229000,-7.24347900,3.89087100,-0.03918553
9.62086951,-26.20571000,-4.13693400,3.84473400,-0.03897022
9.70086951,-27.37451000,-1.07652500,3.78321800,-0.03857037
9.78086951,-28.51255000,1.89160900,3.72170300,-0.03807825
9.86086951,-29.52756000,4.76747000,3.64480800,-0.03740158
9.94086951,-30.37340000,7.52030000,3.59867100,-0.03647884
10.02086951,-30.98856000,10.13472000,3.59867100,-0.03534080
10.10086951,-31.34227000,12.53383000,3.66018700,-0.03392594
10.18086952,-31.43455000,14.70226000,3.81397600,-0.03229577
10.26086952,-31.26538000,16.59387000,4.04466000,-0.03041954
10.34086952,-30.85015000,18.17790000,4.36761800,-0.02838952
10.42086952,-30.23499000,19.45435000,4.76747000,-0.02620571
10.50086952,-29.41990000,20.42323000,5.21345900,-0.02389887
10.58086952,-28.43565000,21.09990000,5.69020700,-0.02153051
10.66086952,-27.26685000,21.49975000,6.16695300,-0.01906988
10.74086952,-25.91351000,21.65354000,6.61294300,-0.01654774
10.82086952,-24.34486000,21.48437000,7.04355200,-0.01399483
10.90086953,-22.59166000,21.00763000,7.39726800,-0.01147269
10.98086953,-20.63853000,20.16179000,7.70484700,-0.00901206
11.06086953,-18.54700000,18.96223000,7.96628900,-0.00670522
11.14086953,-16.34781000,17.42434000,8.16621500,-0.00461368
11.22086953,-14.05635000,15.56348000,8.30462600,-0.00273745
11.30086953,-11.73413000,13.42581000,8.39689900,-0.00107653
11.38086953,-9.36577200,11.05746000,8.44303500,0.00039985
11.46086953,-6.98203700,8.53530900,8.44303500,0.00175320
11.54086953,-4.55216500,5.89013200,8.39689900,0.00310655
11.62086953,-2.09153500,3.13730300,8.28924700,0.00445989
11.70086954,0.36909450,0.32295760,8.15083600,0.00584400
