Time,Channel A,Channel B,Channel C,Channel D
(ns),(mV),(mV),(mV),(V)

-15.27499983,-3.89087100,-3.92162900,4.06003900,0.00784326
-15.19499982,-3.73708200,-3.92162900,4.41375400,0.00784326
-15.11499982,-3.42950300,-3.93700800,4.85974400,0.00787402
-15.03499982,-3.01427100,-3.93700800,5.38262700,0.00790477
-14.95499982,-2.52214600,-3.95238700,5.92089000,0.00790477
-14.87499982,-1.96850400,-3.95238700,6.47453200,0.00790477
-14.79499982,-1.43024100,-3.95238700,6.96665800,0.00787402
-14.71499982,-0.93811510,-3.93700800,7.38188900,0.00787402
-14.63499982,-0.49212600,-3.92162900,7.67408900,0.00784326
-14.55499982,-0.13841040,-3.92162900,7.82787800,0.00784326
-14.47499981,0.12303150,-3.92162900,7.82787800,0.00787402
-14.39499981,0.30757870,-3.92162900,7.67408900,0.00793553
-14.31499981,0.43061020,-3.93700800,7.38188900,0.00805856
-14.23499981,0.50750490,-3.95238700,6.96665800,0.00821235
-14.15499981,0.53826270,-3.95238700,6.47453200,0.00836614
-14.07499981,0.53826270,-3.95238700,5.92089000,0.00851993
-13.99499981,0.50750490,-3.95238700,5.38262700,0.00858145
-13.91499981,0.44598910,-3.93700800,4.85974400,0.00855069
-13.83499981,0.32295760,-3.93700800,4.41375400,0.00839690
-13.75499980,0.12303150,-3.92162900,4.06003900,0.00805856
-13.67499980,-0.15378940,-3.90625000,3.81397600,0.00756644
-13.59499980,-0.53826270,-3.89087100,3.66018700,0.00688976
-13.51499980,-1.03038900,-3.84473400,3.59867100,0.00602854
-13.43499980,-1.59940900,-3.78321800,3.59867100,0.00501353
-13.35499980,-2.21456700,-3.72170300,3.64480800,0.00396777
-13.27499980,-2.82972400,-3.64480800,3.72170300,0.00286048
-13.19499980,-3.36798700,-3.59867100,3.78321800,0.00184547
-13.11499980,-3.78321800,-3.59867100,3.84473400,0.00098425
-13.03499980,-4.01390200,-3.66018700,3.89087100,0.00033834
-12.95499979,-4.01390200,-3.81397600,3.90625000,0.00003076
-12.87499979,-3.76783900,-4.06003900,3.92162900,0.00006152
-12.79499979,-3.26033400,-4.41375400,3.93700800,0.00046137
-12.71499979,-2.52214600,-4.85974400,3.93700800,0.00116880
-12.63499979,-1.58403000,-5.38262700,3.95238700,0.00218381
-12.55499979,-0.53826270,-5.92089000,3.95238700,0.00335261
-12.47499979,0.53826270,-6.47453200,3.95238700,0.00455217
-12.39499979,1.59940900,-6.96665800,3.95238700,0.00572097
-12.31499979,2.52214600,-7.36651000,3.93700800,0.00670522
-12.23499978,3.26033400,-7.65871000,3.92162900,0.00741265
-12.15499978,3.76783900,-7.81250000,3.92162900,0.00778174
-12.07499978,3.99852300,-7.82787800,3.92162900,0.00781250
-11.99499978,3.96776600,-7.72022600,3.92162900,0.00750492
-11.91499978,3.69094500,-7.47416300,3.93700800,0.00688976
-11.83499978,3.19881900,-7.13582600,3.95238700,0.00605930
-11.75499978,2.58366100,-6.70521600,3.95238700,0.00504429
-11.67499978,1.90698800,-6.22846900,3.95238700,0.00393701
-11.59499978,1.24569400,-5.72096400,3.95238700,0.00286048
-11.51499977,0.67667320,-5.19808000,3.93700800,0.00187623
-11.43499977,0.26144190,-4.67519700,3.92162900,0.00098425
-11.35499977,0.03075787,-4.16769200,3.92162900,0.00027682
-11.27499977,0.01537894,-3.67556500,3.92162900,-0.00024606
-11.19499977,0.21530510,-3.21419800,3.92162900,-0.00061516
-11.11499977,0.58439960,-2.76820900,3.93700800,-0.00086122
-11.03499977,1.07652500,-2.33759800,3.95238700,-0.00101501
-10.95499977,1.67630400,-1.90698800,3.95238700,-0.00107653
-10.87499977,2.27608300,-1.50713600,3.95238700,-0.00107653
-10.79499977,2.86048200,-1.10728300,3.95238700,-0.00101501
-10.71499976,3.33722900,-0.73818890,3.93700800,-0.00086122
-10.63499976,3.69094500,-0.41523130,3.92162900,-0.00061516
-10.55499976,3.89087100,-0.12303150,3.92162900,-0.00024606
-10.47499976,3.92162900,0.10765260,3.92162900,0.00027682
-10.39499976,3.79859700,0.29219980,3.92162900,0.00098425
-10.31499976,3.53715500,0.43061020,3.93700800,0.00187623
-10.23499976,3.18344000,0.50750490,3.95238700,0.00286048
-10.15499976,2.75283000,0.53826270,3.95238700,0.00393701
-10.07499976,2.27608300,0.53826270,3.95238700,0.00504429
-9.99499975,1.78395700,0.50750490,3.95238700,0.00605930
-9.91499975,1.26107300,0.43061020,3.93700800,0.00688976
-9.83499975,0.75356790,0.30757870,3.92162900,0.00750492
-9.75499975,0.24606300,0.12303150,3.92162900,0.00781250
-9.67499975,-0.24606300,-0.13841040,3.92162900,0.00778174
-9.59499975,-0.75356790,-0.46136810,3.92162900,0.00741265
-9.51499975,-1.26107300,-0.83046260,3.93700800,0.00670522
-9.43499975,-1.78395700,-1.27645200,3.95238700,0.00572097
-9.35499975,-2.27608300,-1.73782000,3.95238700,0.00455217
-9.27499974,-2.75283000,-2.21456700,3.95238700,0.00335261
-9.19499974,-3.18344000,-2.67593500,3.95238700,0.00218381
-9.11499974,-3.53715500,-3.10654500,3.93700800,0.00116880
-9.03499974,-3.79859700,-3.47564000,3.92162900,0.00046137
-8.95499974,-3.92162900,-3.78321800,3.92162900,0.00006152
-8.87499974,-3.89087100,-4.04466000,3.92162900,0.00003076
-8.79499974,-3.69094500,-4.22920700,3.92162900,0.00033834
-8.71499974,-3.33722900,-4.36761800,3.93700800,0.00098425
-8.63499974,-2.86048200,-4.44451300,3.95238700,0.00184547
-8.55499974,-2.27608300,-4.49065000,3.95238700,0.00286048
-8.47499973,-1.67630400,-4.49065000,3.95238700,0.00396777
-8.39499973,-1.09190400,-4.45989200,3.95238700,0.00501353
-8.31499973,-0.58439960,-4.38299700,3.93700800,0.00602854
-8.23499973,-0.21530510,-4.24458600,3.92162900,0.00688976
-8.15499973,-0.03075787,-4.06003900,3.92162900,0.00756644
-8.07499973,-0.03075787,-3.76783900,3.92162900,0.00805856
-7.99499973,-0.21530510,-3.38336600,3.92162900,0.00839690
-7.91499973,-0.58439960,-2.90661900,3.93700800,0.00855069
-7.83499973,-1.09190400,-2.35297700,3.95238700,0.00858145
-7.75499972,-1.67630400,-1.73782000,3.95238700,0.00851993
-7.67499972,-2.27608300,-1.12266200,3.95238700,0.00836614
-7.59499972,-2.86048200,-0.58439960,3.95238700,0.00821235
-7.51499972,-3.35260800,-0.15378940,3.93700800,0.00805856
-7.43499972,-3.70632400,0.07689468,3.92162900,0.00793553
-7.35499972,-3.89087100,0.09227362,3.92162900,0.00787402
-7.27499972,-3.90625000,-0.15378940,3.92162900,0.00784326
-7.19499972,-3.75246000,-0.63053640,3.92162900,0.00784326
-7.11499972,-3.44488200,-1.32258800,3.93700800,0.00787402
-7.03499972,-3.02965000,-2.19918800,3.95238700,0.00787402
-6.95499971,-2.52214600,-3.16806100,3.95238700,0.00790477
-6.87499971,-1.96850400,-4.19845000,3.95238700,0.00790477
-6.79499971,-1.43024100,-5.19808000,3.95238700,0.00790477
-6.71499971,-0.92273620,-6.12081600,3.93700800,0.00787402
-6.63499971,-0.49212600,-6.92052100,3.92162900,0.00784326
-6.55499971,-0.13841040,-7.58181600,3.92162900,0.00784326
-6.47499971,0.10765260,-8.07394100,3.92162900,0.00784326
-6.39499971,0.27682080,-8.38152000,3.92162900,0.00784326
-6.31499971,0.33833660,-8.55068800,3.93700800,0.00787402
-6.23499970,0.35371550,-8.58144600,3.95238700,0.00790477
-6.15499970,0.30757870,-8.51993000,3.95238700,0.00790477
-6.07499970,0.23068400,-8.38152000,3.95238700,0.00790477
-5.99499970,0.16916830,-8.21235200,3.95238700,0.00787402
-5.91499970,0.09227362,-8.04318300,3.93700800,0.00787402
-5.83499970,0.04613681,-7.92015200,3.92162900,0.00784326
-5.75499970,0.01537894,-7.85863600,3.92162900,0.00784326
-5.67499970,0.00000000,-7.85863600,3.92162900,0.00787402
-5.59499970,-0.01537894,-7.92015200,3.92162900,0.00793553
-5.51499969,0.00000000,-8.04318300,3.93700800,0.00805856
-5.43499969,0.00000000,-8.21235200,3.95238700,0.00821235
-5.35499969,0.00000000,-8.38152000,3.95238700,0.00836614
-5.27499969,0.00000000,-8.51993000,3.95238700,0.00851993
-5.19499969,0.00000000,-8.58144600,3.95238700,0.00858145
-5.11499969,0.00000000,-8.55068800,3.93700800,0.00855069
-5.03499969,0.00000000,-8.38152000,3.92162900,0.00839690
-4.95499969,0.00000000,-8.05856200,3.92162900,0.00805856
-4.87499969,0.00000000,-7.58181600,3.92162900,0.00756644
-4.79499969,0.00000000,-6.96665800,3.92162900,0.00688976
-4.71499968,0.00000000,-6.21309000,3.93700800,0.00602854
-4.63499968,0.00000000,-5.35187000,3.95238700,0.00501353
-4.55499968,0.00000000,-4.42913300,3.95238700,0.00396777
-4.47499968,0.00000000,-3.47564000,3.95238700,0.00286048
-4.39499968,0.00000000,-2.53752400,3.95238700,0.00184547
-4.31499968,0.00000000,-1.66092500,3.93700800,0.00098425
-4.23499968,0.00000000,-0.89197830,3.92162900,0.00036909
-4.15499968,0.00000000,-0.26144190,3.92162900,0.00003076
-4.07499968,0.00000000,0.21530510,3.92162900,0.00003076
-3.99499967,0.00000000,0.52288380,3.92162900,0.00036909
-3.91499967,0.00000000,0.67667320,3.93700800,0.00098425
-3.83499967,0.00000000,0.69205210,3.95238700,0.00184547
-3.75499967,0.00000000,0.61515740,3.95238700,0.00286048
-3.67499967,0.00000000,0.47674700,3.95238700,0.00396777
-3.59499967,0.00000000,0.32295760,3.95238700,0.00501353
-3.51499967,0.00000000,0.18454720,3.93700800,0.00602854
-3.43499967,-0.01537894,0.09227362,3.92162900,0.00688976
-3.35499967,0.00000000,0.01537894,3.92162900,0.00756644
-3.27499966,0.01537894,-0.01537894,3.92162900,0.00805856
-3.19499966,0.04613681,-0.01537894,3.92162900,0.00839690
-3.11499966,0.09227362,-0.01537894,3.93700800,0.00855069
-3.03499966,0.16916830,0.00000000,3.95238700,0.00858145
-2.95499966,0.23068400,0.00000000,3.95238700,0.00851993
-2.87499966,0.30757870,0.00000000,3.95238700,0.00836614
-2.79499966,0.33833660,0.00000000,3.95238700,0.00821235
-2.71499966,0.33833660,0.00000000,3.93700800,0.00805856
-2.63499966,0.26144190,-0.01537894,3.92162900,0.00793553
-2.55499966,0.10765260,0.00000000,3.92162900,0.00787402
-2.47499965,-0.12303150,0.01537894,3.92162900,0.00784326
-2.39499965,-0.44598910,0.04613681,3.92162900,0.00784326
-2.31499965,-0.83046260,0.09227362,3.93700800,0.00787402
-2.23499965,-1.26107300,0.16916830,3.95238700,0.00787402
-2.15499965,-1.73782000,0.23068400,3.95238700,0.00790477
-2.07499965,-2.21456700,0.30757870,3.95238700,0.00790477
-1.99499965,-2.67593500,0.35371550,3.95238700,0.00790477
-1.91499965,-3.10654500,0.33833660,3.95238700,0.00787402
-1.83499965,-3.47564000,0.27682080,3.95238700,0.00784326
-1.75499964,-3.78321800,0.10765260,3.93700800,0.00784326
-1.67499964,-4.04466000,-0.13841040,3.89087100,0.00784326
-1.59499964,-4.22920700,-0.49212600,3.79859700,0.00784326
-1.51499964,-4.36761800,-0.92273620,3.64480800,0.00787402
-1.43499964,-4.44451300,-1.43024100,3.46026100,0.00790477
-1.35499964,-4.49065000,-1.96850400,3.24495600,0.00790477
-1.27499964,-4.49065000,-2.52214600,3.04502900,0.00790477
-1.19499964,-4.44451300,-3.01427100,3.02965000,0.00790477
-1.11499964,-4.36761800,-3.44488200,3.33722900,0.00787402
-1.03499963,-4.22920700,-3.73708200,3.76783900,0.00784326
-0.95499963,-4.04466000,-3.90625000,3.99852300,0.00784326
-0.87499963,-3.78321800,-3.90625000,3.67556500,0.00784326
-0.79499963,-3.47564000,-3.73708200,2.50676700,0.00784326
-0.71499963,-3.10654500,-3.44488200,0.35371550,0.00787402
-0.63499963,-2.67593500,-3.01427100,-2.64517700,0.00790477
-0.55499963,-2.21456700,-2.52214600,-5.98240600,0.00790477
-0.47499963,-1.73782000,-1.96850400,-8.87364700,0.00790477
-0.39499963,-1.27645200,-1.43024100,-10.07320000,0.00790477
-0.31499963,-0.86122040,-0.92273620,-8.25848900,0.00787402
-0.23499962,-0.49212600,-0.49212600,-2.35297700,0.00784326
-0.15499962,-0.15378940,-0.13841040,8.38152000,0.00784326
-0.07499962,0.15378940,0.10765260,24.29872000,0.00784326
0.00500038,0.47674700,0.27682080,45.24483000,0.00784326
0.08500038,0.81508360,0.33833660,70.55856000,0.00787402
0.16500038,1.15342000,0.35371550,99.14800000,0.00790477
0.24500038,1.49175700,0.30757870,129.59830000,0.00790477
0.32500038,1.75319900,0.23068400,160.35620000,0.00790477
0.40500038,1.81471400,0.16916830,189.88370000,0.00790477
0.48500039,1.56865100,0.09227362,216.84300000,0.00787402
0.56500039,1.03038900,0.04613681,240.11130000,0.00784326
0.64500039,0.35371550,0.01537894,259.02740000,0.00784326
0.72500039,-0.32295760,0.00000000,273.23760000,0.00784326
0.80500039,-0.84584150,-0.01537894,282.83400000,0.00784326
0.88500039,-1.12266200,0.00000000,288.15510000,0.00787402
0.96500039,-1.15342000,0.00000000,289.72380000,0.00790477
1.04500039,-1.10728300,0.00000000,288.12440000,0.00790477
1.12500039,-1.33796700,0.00000000,283.92590000,0.00790477
1.20500039,-2.49138800,-0.01537894,277.46680000,0.00787402
1.28500040,-5.21345900,-0.04613681,269.02370000,0.00781250
1.36500040,-9.70410800,-0.06151574,258.62760000,0.00775098
1.44500040,-15.91720000,-0.04613681,246.23210000,0.00778174
1.52500040,-23.62205000,0.07689468,231.76060000,0.00793553
1.60500040,-32.40342000,0.30757870,215.15130000,0.00827387
1.68500040,-41.84609000,0.66129420,196.43520000,0.00882751
1.76500040,-51.65784000,1.13804100,175.87350000,0.00950418
1.84500040,-61.74643000,1.66092500,153.86630000,0.01027313
1.92500040,-72.32713000,2.12229300,131.05930000,0.01094980
2.00500041,-84.19968000,2.32221900,108.19080000,0.01116511
2.08500041,-98.22527000,2.04539800,86.10666000,0.01070374
2.16500041,-114.88070000,1.38410400,65.59116000,0.00968873
2.24500041,-134.35040000,0.47674700,47.35175000,0.00842766
2.32500041,-156.55760000,-0.44598910,31.81902000,0.00735113
2.40500041,-181.07160000,-1.12266200,19.22367000,0.00685901
2.48500041,-207.30810000,-1.44562000,9.47342500,0.00716658
2.56500041,-234.45190000,-1.41486200,2.22994600,0.00818159
2.64500041,-261.74950000,-1.27645200,-3.01427100,0.00947343
2.72500042,-288.52420000,-1.50713600,-6.98203700,0.01008858
2.80500042,-314.51460000,-3.01427100,-10.35002000,0.00848917
2.88500042,-339.58230000,-6.68983700,-13.39505000,0.00304503
2.96500042,-363.40430000,-12.96444000,-16.17864000,-0.00701280
3.04500042,-385.68840000,-21.97650000,-18.60851000,-0.02205340
3.12500042,-406.14230000,-33.52608000,-20.43861000,-0.04179995
3.20500042,-424.47400000,-47.21333000,-21.40748000,-0.06560654
3.28500042,-440.49890000,-62.50000000,-21.34596000,-0.09251969
3.36500042,-454.03230000,-78.80167000,-20.20792000,-0.12155510
3.44500042,-465.01290000,-95.76463000,-18.08563000,-0.15191310
3.52500043,-473.47130000,-113.23510000,-15.36356000,-0.18313240
3.60500043,-479.66900000,-131.56680000,-12.48770000,-0.21558190
3.68500043,-483.89820000,-151.32870000,-9.68872900,-0.24981540
3.76500043,-486.26660000,-172.69010000,-7.13582600,-0.28620200
3.84500043,-486.80480000,-195.75850000,-4.90588000,-0.32492620
3.92500043,-485.46690000,-220.38020000,-3.01427100,-0.36598790
4.00500043,-482.12960000,-246.23210000,-1.41486200,-0.40901820
4.08500043,-476.70090000,-272.80690000,0.00000000,-0.45337100
4.16500043,-469.10370000,-299.45860000,1.26107300,-0.49793920
4.24500044,-459.38420000,-325.52590000,2.47600900,-0.54149230
4.32500044,-447.60390000,-350.39370000,3.64480800,-0.58261570
4.40500044,-434.05510000,-373.73890000,4.73671200,-0.62007870
4.48500044,-419.30670000,-395.31560000,5.75172200,-0.65265130
4.56500044,-403.86620000,-414.76990000,6.68983700,-0.67925690
4.64500044,-388.22590000,-431.79440000,7.48954200,-0.69894190
4.72500044,-372.80080000,-446.12760000,8.15083600,-0.71121430
4.80500044,-357.80630000,-457.56950000,8.64296200,-0.71592030
4.88500044,-343.27320000,-466.01250000,8.95054100,-0.71327510
4.96500045,-329.07850000,-471.47200000,9.07357200,-0.70395550
5.04500045,-314.94520000,-474.00960000,9.05819300,-0.68882260
5.12500045,-300.35060000,-473.82500000,8.91978400,-0.66895300
5.20500045,-284.91020000,-471.21060000,8.71985600,-0.64551550
5.28500045,-268.71610000,-466.55080000,8.48917200,-0.61964810
5.36500045,-252.12230000,-460.04550000,8.24311000,-0.59215060
5.44500045,-235.57450000,-451.86390000,7.98166800,-0.56366880
5.52500045,-219.61120000,-442.03670000,7.70484700,-0.53444880
5.60500045,-204.64750000,-430.57950000,7.38188900,-0.50461370
5.68500045,-190.91410000,-417.49200000,7.02817400,-0.47407110
5.76500046,-178.42640000,-402.74360000,6.61294300,-0.44275960
5.84500046,-166.95370000,-386.45730000,6.16695300,-0.41061760
5.92500046,-155.83470000,-368.67920000,5.69020700,-0.37764520
6.00500046,-144.42360000,-349.68620000,5.21345900,-0.34408830
6.08500046,-132.56640000,-330.09350000,4.76747000,-0.31080830
6.16500046,-120.37090000,-310.50070000,4.36761800,-0.27875860
6.24500046,-108.06780000,-291.50770000,4.04466000,-0.24904650
6.32500046,-95.99532000,-273.63740000,3.81397600,-0.22253320
6.40500046,-84.52263000,-257.16660000,3.66018700,-0.19983390
6.48500047,-73.88041000,-242.15670000,3.59867100,-0.18104080
6.56500047,-64.20706000,-228.45410000,3.59867100,-0.16584650
6.64500047,-55.50258000,-215.68960000,3.64480800,-0.15354330
6.72500047,-47.38250000,-203.20190000,3.72170300,-0.14274730
6.80500047,-39.53925000,-190.43740000,3.78321800,-0.13219730
6.88500047,-32.00356000,-177.36530000,3.84473400,-0.12146280
6.96500047,-24.92926000,-164.20090000,3.89087100,-0.11045150
7.04500047,-18.54700000,-151.32870000,3.90625000,-0.09947097
7.12500047,-13.10285000,-139.16400000,3.92162900,-0.08898253
7.20500048,-8.78137200,-128.12190000,3.93700800,-0.07953987
7.28500048,-5.70558500,-118.41780000,3.93700800,-0.07148130
7.36500048,-3.81397600,-110.09780000,3.95238700,-0.06502215
7.44500048,-2.95275600,-102.96200000,3.95238700,-0.06003937
7.52500048,-2.73745100,-96.39517000,3.95238700,-0.05594857
7.60500048,-2.79896600,-89.85912000,3.95238700,-0.05207308
7.68500048,-2.99889300,-83.18466000,3.93700800,-0.04825911
7.76500048,-3.27571300,-76.44869000,3.92162900,-0.04447589
7.84500048,-3.66018700,-69.85113000,3.92162900,-0.04090797
7.92500048,-4.24458600,-63.65341000,3.92162900,-0.03767839
8.00500049,-5.09042800,-58.11700000,3.92162900,-0.03500246
8.08500049,-6.28998500,-53.44180000,3.93700800,-0.03303396
8.16500049,-7.87401500,-49.64320000,3.95238700,-0.03183440
8.24500049,-9.75024500,-46.64431000,3.95238700,-0.03131152
8.32500049,-11.79564000,-44.04527000,3.95238700,-0.03115773
8.40500049,-13.82566000,-41.44623000,3.95238700,-0.03112697
8.48500049,-15.74803000,-38.67802000,3.93700800,-0.03112697
8.56500049,-17.48585000,-35.77140000,3.92162900,-0.03115773
8.64500049,-18.97761000,-32.81865000,3.92162900,-0.03128076
8.72500050,-20.17716000,-29.98893000,3.92162900,-0.03152682
8.80500050,-21.06914000,-27.43602000,3.92162900,-0.03201895
8.88500050,-21.68430000,-25.29835000,3.93700800,-0.03275714
8.96500050,-22.05339000,-23.62205000,3.95238700,-0.03377214
9.04500050,-22.23794000,-22.31484000,3.95238700,-0.03497170
9.12500050,-22.31484000,-21.14604000,3.95238700,-0.03617126
9.20500050,-22.36097000,-19.82345000,3.95238700,-0.03727854
9.28500050,-22.46863000,-18.13177000,3.93700800,-0.03817052
9.36500050,-22.73007000,-15.97871000,3.92162900,-0.03878568
9.44500051,-23.20681000,-13.30278000,3.92162900,-0.03915477
9.52500051,-23.91425000,-10.11934000,3.92162900,-0.03924705
9.60500051,-24.85236000,-6.52066900,3.92162900,-0.03909326
9.68500051,-25.97502000,-2.61441900,3.93700800,-0.03875492
9.76500051,-27.18996000,1.44562000,3.95238700,-0.03826280
9.84500051,-28.43565000,5.53641700,3.95238700,-0.03761688
9.92500051,-29.58907000,9.56569900,3.95238700,-0.03678642
10.00500051,-30.55795000,13.39505000,3.95238700,-0.03580217
10.08500051,-31.23462000,16.90145000,3.93700800,-0.03463336
10.16500051,-31.55758000,19.96186000,3.92162900,-0.03337229
10.24500052,-31.52682000,22.48400000,3.92162900,-0.03204970
10.32500052,-31.14235000,24.42175000,3.92162900,-0.03069636
10.40500052,-30.41954000,25.75972000,3.92162900,-0.02937377
10.48500052,-29.40452000,26.52866000,3.93700800,-0.02805118
10.56500052,-28.14345000,26.79011000,3.95238700,-0.02675935
10.64500052,-26.69783000,26.60556000,3.95238700,-0.02546752
10.72500052,-25.05229000,26.06730000,3.95238700,-0.02411417
10.80500052,-23.23757000,25.20608000,3.95238700,-0.02260704
10.88500052,-21.25369000,24.03728000,3.93700800,-0.02088460
10.96500053,-19.11602000,22.53014000,3.92162900,-0.01894685
11.04500053,-16.85531000,20.66929000,3.92162900,-0.01682456
11.12500053,-14.50234000,18.45472000,3.92162900,-0.01451772
11.20500053,-12.11860000,15.87106000,3.92162900,-0.01211860
11.28500053,-9.68872900,12.93369000,3.93700800,-0.00962722
11.36500053,-7.27423700,9.70410800,3.95238700,-0.00713583
11.44500053,-4.87512300,6.25922700,3.95238700,-0.00464444
11.52500053,-2.49138800,2.72207200,3.95238700,-0.00218381
11.60500053,-0.10765260,-0.81508360,3.95238700,0.00024606
11.68500053,2.26070400,-4.25996500,3.93700800,0.00261442
