Time,Channel A,Channel B,Channel C,Channel D
(ns),(mV),(mV),(mV),(V)

-15.79999983,0.00000000,-0.12303150,3.95238700,0.00784326
-15.71999982,0.00000000,-0.44598910,4.15231300,0.00784326
-15.63999982,0.00000000,-0.83046260,4.52140800,0.00787402
-15.55999982,0.00000000,-1.26107300,5.02891200,0.00790477
-15.47999982,0.00000000,-1.73782000,5.62869100,0.00790477
-15.39999982,0.00000000,-2.21456700,6.22846900,0.00790477
-15.31999982,0.00000000,-2.67593500,6.79749000,0.00790477
-15.23999982,0.00000000,-3.09116600,7.28961600,0.00787402
-15.15999982,-0.01537894,-3.46026100,7.62795300,0.00784326
-15.07999982,0.00000000,-3.78321800,7.81250000,0.00784326
-14.99999981,0.01537894,-4.04466000,7.82787800,0.00784326
-14.91999981,0.04613681,-4.27534400,7.67408900,0.00784326
-14.83999981,0.09227362,-4.45989200,7.38188900,0.00787402
-14.75999981,0.16916830,-4.61368100,6.96665800,0.00790477
-14.67999981,0.23068400,-4.73671200,6.47453200,0.00790477
-14.59999981,0.30757870,-4.79822800,5.92089000,0.00790477
-14.51999981,0.33833660,-4.79822800,5.38262700,0.00790477
-14.43999981,0.33833660,-4.70595500,4.85974400,0.00787402
-14.35999981,0.26144190,-4.50602900,4.41375400,0.00787402
-14.27999980,0.10765260,-4.15231300,4.06003900,0.00784326
-14.19999980,-0.12303150,-3.64480800,3.81397600,0.00781250
-14.11999980,-0.44598910,-2.98351400,3.66018700,0.00778174
-14.03999980,-0.83046260,-2.16843000,3.59867100,0.00768947
-13.95999980,-1.26107300,-1.24569400,3.59867100,0.00756644
-13.87999980,-1.73782000,-0.24606300,3.64480800,0.00744341
-13.79999980,-2.21456700,0.78432570,3.72170300,0.00728962
-13.71999980,-2.67593500,1.75319900,3.78321800,0.00719734
-13.63999980,-3.10654500,2.59904000,3.84473400,0.00719734
-13.55999980,-3.47564000,3.29109200,3.89087100,0.00732037
-13.47999979,-3.78321800,3.76783900,3.90625000,0.00762795
-13.39999979,-4.04466000,4.01390200,3.92162900,0.00812008
-13.31999979,-4.22920700,4.04466000,3.93700800,0.00882751
-13.23999979,-4.36761800,3.87549200,3.93700800,0.00971949
-13.15999979,-4.44451300,3.52177600,3.95238700,0.01076526
-13.07999979,-4.49065000,3.06040800,3.95238700,0.01184178
-12.99999979,-4.49065000,2.52214600,3.95238700,0.01294907
-12.91999979,-4.44451300,1.93774600,3.95238700,0.01393332
-12.83999979,-4.36761800,1.36872500,3.93700800,0.01476378
-12.75999978,-4.22920700,0.79970470,3.92162900,0.01534818
-12.67999978,-4.04466000,0.26144190,3.92162900,0.01565576
-12.59999978,-3.78321800,-0.26144190,3.92162900,0.01565576
-12.51999978,-3.47564000,-0.76894680,3.92162900,0.01534818
-12.43999978,-3.10654500,-1.27645200,3.93700800,0.01476378
-12.35999978,-2.67593500,-1.78395700,3.95238700,0.01393332
-12.27999978,-2.21456700,-2.27608300,3.95238700,0.01294907
-12.19999978,-1.73782000,-2.75283000,3.95238700,0.01184178
-12.11999978,-1.27645200,-3.18344000,3.95238700,0.01076526
-12.03999977,-0.83046260,-3.53715500,3.93700800,0.00975025
-11.95999977,-0.46136810,-3.78321800,3.93700800,0.00885827
-11.87999977,-0.13841040,-3.90625000,3.92162900,0.00812008
-11.79999977,0.12303150,-3.89087100,3.90625000,0.00759720
-11.71999977,0.30757870,-3.73708200,3.89087100,0.00722810
-11.63999977,0.43061020,-3.42950300,3.84473400,0.00701280
-11.55999977,0.50750490,-3.01427100,3.78321800,0.00685901
-11.47999977,0.53826270,-2.52214600,3.72170300,0.00682825
-11.39999977,0.53826270,-1.96850400,3.64480800,0.00682825
-11.31999977,0.50750490,-1.43024100,3.59867100,0.00685901
-11.23999976,0.43061020,-0.92273620,3.59867100,0.00701280
-11.15999976,0.30757870,-0.47674700,3.66018700,0.00722810
-11.07999976,0.12303150,-0.13841040,3.81397600,0.00759720
-10.99999976,-0.13841040,0.10765260,4.04466000,0.00812008
-10.91999976,-0.49212600,0.23068400,4.36761800,0.00885827
-10.83999976,-0.93811510,0.24606300,4.76747000,0.00975025
-10.75999976,-1.43024100,0.18454720,5.21345900,0.01076526
-10.67999976,-1.96850400,0.06151574,5.69020700,0.01184178
-10.59999976,-2.52214600,-0.06151574,6.16695300,0.01294907
-10.51999975,-3.01427100,-0.18454720,6.61294300,0.01393332
-10.43999975,-3.44488200,-0.24606300,7.04355200,0.01476378
-10.35999975,-3.73708200,-0.23068400,7.39726800,0.01534818
-10.27999975,-3.90625000,-0.10765260,7.70484700,0.01565576
-10.19999975,-3.90625000,0.13841040,7.96628900,0.01565576
-10.11999975,-3.73708200,0.52288380,8.16621500,0.01534818
-10.03999975,-3.44488200,1.01501000,8.30462600,0.01476378
-9.95999975,-3.01427100,1.58403000,8.39689900,0.01393332
-9.87999975,-2.52214600,2.21456700,8.44303500,0.01294907
-9.79999974,-1.96850400,2.82972400,8.44303500,0.01184178
-9.71999974,-1.43024100,3.36798700,8.39689900,0.01073450
-9.63999974,-0.92273620,3.78321800,8.30462600,0.00971949
-9.55999974,-0.49212600,3.99852300,8.16621500,0.00879675
-9.47999974,-0.13841040,4.01390200,7.96628900,0.00812008
-9.39999974,0.10765260,3.76783900,7.70484700,0.00762795
-9.31999974,0.27682080,3.30647100,7.39726800,0.00741265
-9.23999974,0.33833660,2.61441900,7.04355200,0.00738189
-9.15999974,0.35371550,1.75319900,6.61294300,0.00753568
-9.07999974,0.30757870,0.78432570,6.16695300,0.00778174
-8.99999973,0.23068400,-0.24606300,5.69020700,0.00802781
-8.91999973,0.16916830,-1.24569400,5.21345900,0.00824311
-8.83999973,0.10765260,-2.16843000,4.76747000,0.00836614
-8.75999973,0.04613681,-2.98351400,4.38299700,0.00830463
-8.67999973,0.01537894,-3.64480800,4.06003900,0.00802781
-8.59999973,-0.01537894,-4.15231300,3.79859700,0.00759720
-8.51999973,-0.04613681,-4.50602900,3.62942900,0.00698204
-8.43999973,-0.10765260,-4.70595500,3.50639700,0.00621309
-8.35999973,-0.16916830,-4.79822800,3.44488200,0.00535187
-8.27999972,-0.23068400,-4.79822800,3.41412400,0.00442913
-8.19999972,-0.30757870,-4.73671200,3.41412400,0.00347564
-8.11999972,-0.35371550,-4.61368100,3.42950300,0.00255290
-8.03999972,-0.35371550,-4.45989200,3.49101900,0.00166093
-7.95999972,-0.27682080,-4.27534400,3.59867100,0.00092274
-7.87999972,-0.12303150,-4.04466000,3.79859700,0.00027682
-7.79999972,0.15378940,-3.78321800,4.07541800,-0.00024606
-7.71999972,0.53826270,-3.46026100,4.47527100,-0.00061516
-7.63999972,1.01501000,-3.09116600,4.96739600,-0.00086122
-7.55999972,1.59940900,-2.67593500,5.53641700,-0.00101501
-7.47999971,2.21456700,-2.21456700,6.16695300,-0.00107653
-7.39999971,2.82972400,-1.73782000,6.78211100,-0.00107653
-7.31999971,3.36798700,-1.26107300,7.30499500,-0.00101501
-7.23999971,3.78321800,-0.83046260,7.72022600,-0.00086122
-7.15999971,4.02928100,-0.44598910,7.93553100,-0.00061516
-7.07999971,4.02928100,-0.12303150,7.93553100,-0.00024606
-6.99999971,3.75246000,0.10765260,7.68946800,0.00027682
-6.91999971,3.21419800,0.26144190,7.22810000,0.00092274
-6.83999971,2.41449300,0.33833660,6.55142700,0.00166093
-6.75999970,1.43024100,0.33833660,5.69020700,0.00255290
-6.67999970,0.30757870,0.30757870,4.73671200,0.00347564
-6.59999970,-0.84584150,0.23068400,3.70632400,0.00442913
-6.51999970,-1.93774600,0.16916830,2.70669300,0.00535187
-6.43999970,-2.86048200,0.09227362,1.76857800,0.00621309
-6.35999970,-3.53715500,0.04613681,0.93811510,0.00698204
-6.27999970,-3.89087100,0.01537894,0.27682080,0.00759720
-6.19999970,-3.86011300,0.00000000,-0.23068400,0.00805856
-6.11999970,-3.47564000,-0.01537894,-0.56902060,0.00836614
-6.03999969,-2.76820900,0.00000000,-0.76894680,0.00855069
-5.95999969,-1.76857800,0.00000000,-0.84584150,0.00858145
-5.87999969,-0.61515740,0.00000000,-0.84584150,0.00851993
-5.79999969,0.61515740,0.00000000,-0.78432570,0.00836614
-5.71999969,1.76857800,0.00000000,-0.67667320,0.00821235
-5.63999969,2.76820900,-0.01537894,-0.52288380,0.00805856
-5.55999969,3.49101900,-0.01537894,-0.35371550,0.00793553
-5.47999969,3.87549200,-0.01537894,-0.12303150,0.00787402
-5.39999969,3.87549200,0.01537894,0.13841040,0.00784326
-5.31999969,3.49101900,0.09227362,0.46136810,0.00784326
-5.23999968,2.76820900,0.18454720,0.84584150,0.00787402
-5.15999968,1.76857800,0.32295760,1.27645200,0.00787402
-5.07999968,0.61515740,0.47674700,1.73782000,0.00790477
-4.99999968,-0.61515740,0.61515740,2.21456700,0.00790477
-4.91999968,-1.76857800,0.69205210,2.67593500,0.00790477
-4.83999968,-2.76820900,0.67667320,3.10654500,0.00787402
-4.75999968,-3.47564000,0.53826270,3.49101900,0.00784326
-4.67999968,-3.86011300,0.21530510,3.79859700,0.00784326
-4.59999968,-3.89087100,-0.26144190,4.01390200,0.00784326
-4.51999967,-3.53715500,-0.93811510,4.15231300,0.00784326
-4.43999967,-2.86048200,-1.75319900,4.18307100,0.00787402
-4.35999967,-1.93774600,-2.70669300,4.12155500,0.00790477
-4.27999967,-0.84584150,-3.70632400,4.01390200,0.00790477
-4.19999967,0.30757870,-4.73671200,3.89087100,0.00790477
-4.11999967,1.43024100,-5.69020700,3.76783900,0.00790477
-4.03999967,2.41449300,-6.53604800,3.69094500,0.00787402
-3.95999967,3.21419800,-7.21272100,3.70632400,0.00784326
-3.87999967,3.75246000,-7.68946800,3.81397600,0.00784326
-3.79999966,4.02928100,-7.93553100,4.06003900,0.00784326
-3.71999966,4.02928100,-7.98166800,4.39837600,0.00784326
-3.63999966,3.78321800,-7.81250000,4.85974400,0.00787402
-3.55999966,3.36798700,-7.47416300,5.36724900,0.00790477
-3.47999966,2.82972400,-7.01279500,5.92089000,0.00790477
-3.39999966,2.21456700,-6.47453200,6.47453200,0.00790477
-3.31999966,1.59940900,-5.89013200,6.96665800,0.00790477
-3.23999966,1.01501000,-5.30573300,7.38188900,0.00787402
-3.15999966,0.53826270,-4.72133400,7.67408900,0.00784326
-3.07999966,0.15378940,-4.18307100,7.82787800,0.00784326
-2.99999965,-0.12303150,-3.66018700,7.82787800,0.00784326
-2.91999965,-0.27682080,-3.16806100,7.67408900,0.00784326
-2.83999965,-0.35371550,-2.66055600,7.38188900,0.00787402
-2.75999965,-0.35371550,-2.16843000,6.96665800,0.00790477
-2.67999965,-0.30757870,-1.67630400,6.47453200,0.00790477
-2.59999965,-0.23068400,-1.19955700,5.92089000,0.00790477
-2.51999965,-0.16916830,-0.75356790,5.38262700,0.00790477
-2.43999965,-0.09227362,-0.39985230,4.85974400,0.00787402
-2.35999965,-0.04613681,-0.13841040,4.41375400,0.00784326
-2.27999964,-0.01537894,0.00000000,4.06003900,0.00784326
-2.19999964,0.00000000,-0.03075787,3.81397600,0.00784326
-2.11999964,0.01537894,-0.23068400,3.66018700,0.00784326
-2.03999964,0.00000000,-0.59977850,3.59867100,0.00787402
-1.95999964,0.00000000,-1.09190400,3.59867100,0.00790477
-1.87999964,0.00000000,-1.67630400,3.64480800,0.00790477
-1.79999964,0.00000000,-2.27608300,3.72170300,0.00790477
-1.71999964,0.00000000,-2.86048200,3.81397600,0.00790477
-1.63999964,0.00000000,-3.35260800,3.92162900,0.00787402
-1.55999963,-0.01537894,-3.70632400,3.99852300,0.00784326
-1.47999963,0.00000000,-3.89087100,3.98314500,0.00784326
-1.39999963,0.01537894,-3.90625000,3.81397600,0.00784326
-1.31999963,0.04613681,-3.75246000,3.41412400,0.00784326
-1.23999963,0.09227362,-3.44488200,2.79896600,0.00787402
-1.15999963,0.16916830,-3.02965000,1.99926200,0.00790477
-1.07999963,0.23068400,-2.52214600,1.10728300,0.00790477
-0.99999963,0.30757870,-1.96850400,0.30757870,0.00790477
-0.91999963,0.35371550,-1.43024100,-0.03075787,0.00787402
-0.83999963,0.33833660,-0.92273620,0.41523130,0.00787402
-0.75999962,0.27682080,-0.49212600,1.56865100,0.00784326
-0.67999962,0.10765260,-0.13841040,3.12192400,0.00784326
-0.59999962,-0.13841040,0.10765260,4.67519700,0.00787402
-0.51999962,-0.49212600,0.27682080,5.85937500,0.00793553
-0.43999962,-0.92273620,0.33833660,6.39763700,0.00805856
-0.35999962,-1.43024100,0.35371550,6.33612200,0.00821235
-0.27999962,-1.96850400,0.30757870,6.10543700,0.00836614
-0.19999962,-2.52214600,0.23068400,6.48991100,0.00851993
-0.11999962,-3.04502900,0.15378940,8.76599300,0.00858145
-0.03999961,-3.50639700,0.09227362,14.37930000,0.00855069
0.04000039,-3.84473400,0.03075787,24.63705000,0.00839690
0.12000039,-3.96776600,0.00000000,40.63115000,0.00805856
0.20000039,-3.79859700,0.00000000,62.96136000,0.00756644
0.28000039,-3.30647100,0.03075787,91.59694000,0.00688976
0.36000039,-2.49138800,0.09227362,125.83050000,0.00602854
0.44000039,-1.39948300,0.15378940,164.24700000,0.00501353
0.52000039,-0.15378940,0.23068400,204.87820000,0.00396777
0.60000039,1.06114600,0.30757870,245.27870000,0.00286048
0.68000039,1.92236700,0.33833660,282.88010000,0.00184547
0.76000040,2.10691400,0.32295760,315.22210000,0.00098425
0.84000040,1.63016700,0.24606300,340.22820000,0.00036909
0.92000040,0.63053640,0.10765260,356.37610000,0.00003076
1.00000040,-0.67667320,-0.12303150,362.91210000,0.00003076
1.08000040,-2.01464100,-0.39985230,359.88250000,0.00036909
1.16000040,-3.21419800,-0.73818890,348.07150000,0.00098425
1.24000040,-4.22920700,-1.10728300,328.92470000,0.00184547
1.32000040,-5.22883800,-1.50713600,304.28760000,0.00286048
1.40000040,-6.68983700,-1.90698800,276.20570000,0.00396777
1.48000041,-9.50418300,-2.35297700,246.66280000,0.00498278
1.56000041,-14.54847000,-2.86048200,217.39660000,0.00584400
1.64000041,-22.31484000,-3.35260800,189.74530000,0.00664370
1.72000041,-32.89555000,-3.76783900,164.52390000,0.00741265
1.80000041,-46.16756000,-4.01390200,142.11670000,0.00833538
1.88000041,-61.70029000,-4.02928100,122.43170000,0.00950418
1.96000041,-78.92471000,-3.76783900,105.08430000,0.01101132
2.04000041,-97.24101000,-3.29109200,89.50541000,0.01279528
2.12000041,-116.20320000,-2.67593500,75.12610000,0.01467151
2.20000042,-135.56530000,-2.13767200,61.48499000,0.01630167
2.28000042,-155.63480000,-2.07615600,48.30524000,0.01694759
2.36000042,-176.85780000,-2.81434500,35.60224000,0.01608637
2.44000042,-199.32640000,-4.35223900,23.62205000,0.01368725
2.52000042,-223.05610000,-6.56680600,12.74914000,0.00999631
2.60000042,-247.86230000,-9.18122500,3.36798700,0.00556718
2.68000042,-273.37600000,-11.87254000,-4.15231300,0.00095349
2.76000042,-299.10490000,-14.41006000,-9.65797200,-0.00347564
2.84000042,-324.48020000,-16.74766000,-13.16437000,-0.00756644
2.92000042,-348.96340000,-19.03912000,-14.96371000,-0.01171875
3.00000043,-372.06260000,-21.79195000,-15.65576000,-0.01679380
3.08000043,-393.63930000,-25.99040000,-15.90182000,-0.02460630
3.16000043,-413.63190000,-32.60334000,-15.94796000,-0.03697097
3.24000043,-431.77900000,-42.23056000,-15.93258000,-0.05505659
3.32000043,-447.83460000,-55.11811000,-15.82493000,-0.07950910
3.40000043,-461.53720000,-71.15834000,-15.48659000,-0.11032850
3.48000043,-472.68700000,-89.96677000,-14.73302000,-0.14689960
3.56000043,-481.08390000,-110.91290000,-13.45657000,-0.18811510
3.64000043,-486.66640000,-133.27390000,-11.59572000,-0.23252950
3.72000044,-489.46540000,-156.37300000,-9.18122500,-0.27860480
3.80000044,-489.61920000,-179.68750000,-6.45915300,-0.32492620
3.88000044,-487.46610000,-203.14040000,-3.72170300,-0.37066310
3.96000044,-483.43690000,-226.82390000,-1.12266200,-0.41520050
4.04000044,-477.80810000,-250.63050000,1.18417800,-0.45795400
4.12000044,-470.78000000,-274.46790000,3.10654500,-0.49846210
4.20000044,-462.42920000,-298.12070000,4.62906000,-0.53638650
4.28000044,-452.78660000,-321.34290000,5.73634300,-0.57145050
4.36000044,-441.77530000,-343.79610000,6.47453200,-0.60343870
4.44000045,-429.33370000,-365.09590000,6.95127900,-0.63207430
4.52000045,-415.44660000,-384.84250000,7.21272100,-0.65708050
4.60000045,-400.05220000,-402.69740000,7.35113100,-0.67805730
4.68000045,-383.28920000,-418.49160000,7.42802600,-0.69475880
4.76000045,-365.68040000,-432.10200000,7.50492100,-0.70684670
4.84000045,-347.76390000,-443.28250000,7.61257400,-0.71385950
4.92000045,-330.17040000,-451.80240000,7.76636300,-0.71533580
5.00000045,-313.36120000,-457.46180000,7.93553100,-0.71093750
5.08000045,-297.67470000,-460.10700000,8.10469900,-0.70057210
5.16000045,-283.21850000,-459.72250000,8.27386800,-0.68433200
5.24000046,-269.80810000,-456.35460000,8.38152000,-0.66270920
5.32000046,-257.12050000,-450.20300000,8.44303500,-0.63638040
5.40000046,-244.43280000,-441.56000000,8.44303500,-0.60629920
5.48000046,-231.11470000,-430.87160000,8.39689900,-0.57357280
5.56000046,-217.07370000,-418.67610000,8.30462600,-0.53943160
5.64000046,-202.49440000,-405.43490000,8.16621500,-0.50507500
5.72000046,-187.73070000,-391.53230000,7.96628900,-0.47136440
5.80000046,-173.25910000,-377.18380000,7.70484700,-0.43900710
5.88000046,-159.46420000,-362.51230000,7.39726800,-0.40824930
5.96000047,-146.66890000,-347.51780000,7.04355200,-0.37909080
6.04000047,-134.96550000,-332.12350000,6.61294300,-0.35122420
6.12000047,-124.23100000,-316.19090000,6.16695300,-0.32431100
6.20000047,-113.92720000,-299.48940000,5.69020700,-0.29755170
6.28000047,-103.53100000,-281.95740000,5.21345900,-0.27057700
6.36000047,-92.95029000,-263.93330000,4.76747000,-0.24363310
6.44000047,-82.29269000,-245.83230000,4.36761800,-0.21724290
6.52000047,-71.78887000,-228.17730000,4.04466000,-0.19220600
6.60000047,-61.71567000,-211.41420000,3.81397600,-0.16929130
6.68000048,-52.36528000,-195.89690000,3.66018700,-0.14911420
6.76000048,-43.95300000,-181.76360000,3.59867100,-0.13201280
6.84000048,-36.54035000,-168.96840000,3.59867100,-0.11789490
6.92000048,-30.08120000,-157.28040000,3.64480800,-0.10629920
7.00000048,-24.28334000,-146.08450000,3.72170300,-0.09617987
7.08000048,-18.85458000,-134.91940000,3.78321800,-0.08652190
7.16000048,-13.81028000,-123.81580000,3.84473400,-0.07704847
7.24000048,-9.30425600,-112.97370000,3.89087100,-0.06775960
7.32000048,-5.49028000,-102.77740000,3.90625000,-0.05899360
7.40000048,-2.59904000,-93.64234000,3.92162900,-0.05115034
7.48000049,-0.79970470,-85.90674000,3.93700800,-0.04466043
7.56000049,-0.13841040,-79.72440000,3.93700800,-0.03983145
7.64000049,-0.53826270,-75.06459000,3.95238700,-0.03675566
7.72000049,-1.84547200,-71.68122000,3.95238700,-0.03515625
7.80000049,-3.67556500,-68.92839000,3.95238700,-0.03447958
7.88000049,-5.67482800,-66.20631000,3.95238700,-0.03398745
7.96000049,-7.62795300,-63.25356000,3.93700800,-0.03343381
8.04000049,-9.42728800,-60.00861000,3.92162900,-0.03272638
8.12000049,-11.04208000,-56.60986000,3.92162900,-0.03183440
8.20000050,-12.45694000,-53.25726000,3.92162900,-0.03091166
8.28000050,-13.74877000,-50.19685000,3.92162900,-0.03008120
8.36000050,-14.97908000,-47.58243000,3.93700800,-0.02949680
8.44000050,-16.19402000,-45.52165000,3.95238700,-0.02921998
8.52000050,-17.43971000,-43.92224000,3.95238700,-0.02931225
8.60000050,-18.67003000,-42.47662000,3.95238700,-0.02958908
8.68000050,-19.83883000,-40.81570000,3.95238700,-0.02989665
8.76000050,-20.97687000,-38.73954000,3.93700800,-0.03023499
8.84000050,-22.05339000,-36.15588000,3.93700800,-0.03060408
8.92000051,-23.05302000,-33.08009000,3.92162900,-0.03109621
9.00000051,-23.99114000,-29.58907000,3.90625000,-0.03171137
9.08000051,-24.82160000,-25.77510000,3.89087100,-0.03254183
9.16000051,-25.54441000,-21.82271000,3.84473400,-0.03355684
9.24000051,-26.12881000,-17.80881000,3.78321800,-0.03475640
9.32000051,-26.60556000,-13.84104000,3.72170300,-0.03604823
9.40000051,-26.94390000,-9.87327700,3.64480800,-0.03724778
9.48000051,-27.17458000,-5.89013200,3.59867100,-0.03829355
9.56000051,-27.31299000,-1.90698800,3.59867100,-0.03900098
9.64000051,-27.38988000,2.06077700,3.66018700,-0.03937008
9.72000052,-27.43602000,5.95164800,3.81397600,-0.03937008
9.80000052,-27.46678000,9.70410800,4.04466000,-0.03900098
9.88000052,-27.49754000,13.28740000,4.36761800,-0.03829355
9.96000052,-27.51292000,16.64001000,4.76747000,-0.03727854
10.04000052,-27.49754000,19.74655000,5.21345900,-0.03604823
10.12000052,-27.42064000,22.56090000,5.69020700,-0.03460261
10.20000052,-27.20534000,25.08304000,6.16695300,-0.03297244
10.28000052,-26.82087000,27.28223000,6.61294300,-0.03112697
10.36000052,-26.19033000,29.08157000,7.04355200,-0.02912771
10.44000053,-25.31373000,30.41954000,7.39726800,-0.02694390
10.52000053,-24.19107000,31.20386000,7.70484700,-0.02469857
10.60000053,-22.82234000,31.40379000,7.96628900,-0.02236097
10.68000053,-21.25369000,31.01931000,8.16621500,-0.02002338
10.76000053,-19.50049000,30.05044000,8.30462600,-0.01765502
10.84000053,-17.63964000,28.55869000,8.39689900,-0.01531742
10.92000053,-15.67113000,26.65170000,8.44303500,-0.01301058
11.00000053,-13.62574000,24.40637000,8.44303500,-0.01070374
11.08000053,-11.50344000,21.89960000,8.39689900,-0.00833538
11.16000053,-9.31963500,19.20829000,8.30462600,-0.00593627
11.24000054,-7.13582600,16.33243000,8.16621500,-0.00350640
