Time,Channel A,Channel B,Channel C,Channel D
(ns),(mV),(mV),(mV),(V)

-15.29999983,0.00000000,0.00000000,3.92162900,0.00808932
-15.21999982,0.00000000,0.03075787,3.92162900,0.00848917
-15.13999982,0.00000000,0.09227362,3.93700800,0.00873524
-15.05999982,0.00000000,0.15378940,3.95238700,0.00891978
-14.97999982,0.00000000,0.23068400,3.95238700,0.00898130
-14.89999982,0.00000000,0.30757870,3.95238700,0.00898130
-14.81999982,0.00000000,0.33833660,3.95238700,0.00888903
-14.73999982,0.00000000,0.33833660,3.93700800,0.00873524
-14.65999982,-0.01537894,0.26144190,3.93700800,0.00845842
-14.57999982,0.00000000,0.10765260,3.92162900,0.00808932
-14.49999981,0.01537894,-0.12303150,3.90625000,0.00756644
-14.41999981,0.04613681,-0.44598910,3.89087100,0.00695128
-14.33999981,0.09227362,-0.83046260,3.84473400,0.00621309
-14.25999981,0.16916830,-1.26107300,3.78321800,0.00535187
-14.17999981,0.23068400,-1.73782000,3.72170300,0.00442913
-14.09999981,0.30757870,-2.21456700,3.64480800,0.00347564
-14.01999981,0.33833660,-2.67593500,3.59867100,0.00255290
-13.93999981,0.33833660,-3.10654500,3.59867100,0.00166093
-13.85999981,0.26144190,-3.49101900,3.66018700,0.00092274
-13.77999980,0.10765260,-3.79859700,3.81397600,0.00027682
-13.69999980,-0.12303150,-4.02928100,4.06003900,-0.00024606
-13.61999980,-0.44598910,-4.18307100,4.41375400,-0.00061516
-13.53999980,-0.83046260,-4.27534400,4.85974400,-0.00086122
-13.45999980,-1.26107300,-4.29072300,5.38262700,-0.00101501
-13.37999980,-1.73782000,-4.25996500,5.92089000,-0.00107653
-13.29999980,-2.21456700,-4.18307100,6.47453200,-0.00107653
-13.21999980,-2.67593500,-4.10617600,6.96665800,-0.00101501
-13.13999980,-3.10654500,-4.02928100,7.38188900,-0.00086122
-13.05999980,-3.49101900,-3.96776600,7.67408900,-0.00058440
-12.97999979,-3.79859700,-3.93700800,7.82787800,-0.00021531
-12.89999979,-4.02928100,-3.92162900,7.81250000,0.00024606
-12.81999979,-4.18307100,-3.92162900,7.62795300,0.00083046
-12.73999979,-4.27534400,-3.93700800,7.28961600,0.00147638
-12.65999979,-4.29072300,-3.93700800,6.79749000,0.00221457
-12.57999979,-4.25996500,-3.95238700,6.22846900,0.00301427
-12.49999979,-4.18307100,-3.95238700,5.62869100,0.00381398
-12.41999979,-4.10617600,-3.95238700,5.02891200,0.00467520
-12.33999979,-4.02928100,-3.93700800,4.52140800,0.00553642
-12.25999978,-3.96776600,-3.92162900,4.15231300,0.00645915
-12.17999978,-3.92162900,-3.92162900,3.95238700,0.00738189
-12.09999978,-3.92162900,-3.92162900,3.95238700,0.00830463
-12.01999978,-3.96776600,-3.92162900,4.15231300,0.00925812
-11.93999978,-4.02928100,-3.93700800,4.52140800,0.01021161
-11.85999978,-4.10617600,-3.95238700,5.02891200,0.01110359
-11.77999978,-4.18307100,-3.95238700,5.62869100,0.01199557
-11.69999978,-4.25996500,-3.95238700,6.22846900,0.01279528
-11.61999978,-4.29072300,-3.95238700,6.79749000,0.01356422
-11.53999977,-4.27534400,-3.93700800,7.28961600,0.01427165
-11.45999977,-4.18307100,-3.92162900,7.62795300,0.01488681
-11.37999977,-4.02928100,-3.92162900,7.81250000,0.01544045
-11.29999977,-3.79859700,-3.92162900,7.82787800,0.01590182
-11.21999977,-3.49101900,-3.92162900,7.67408900,0.01630167
-11.13999977,-3.10654500,-3.93700800,7.38188900,0.01657849
-11.05999977,-2.67593500,-3.95238700,6.96665800,0.01679380
-10.97999977,-2.21456700,-3.95238700,6.47453200,0.01688607
-10.89999977,-1.73782000,-3.95238700,5.92089000,0.01688607
-10.81999977,-1.27645200,-3.95238700,5.36724900,0.01679380
-10.73999976,-0.83046260,-3.93700800,4.85974400,0.01660925
-10.65999976,-0.46136810,-3.93700800,4.39837600,0.01633243
-10.57999976,-0.13841040,-3.92162900,4.06003900,0.01593258
-10.49999976,0.12303150,-3.90625000,3.81397600,0.01540969
-10.41999976,0.30757870,-3.89087100,3.70632400,0.01479454
-10.33999976,0.43061020,-3.84473400,3.69094500,0.01408711
-10.25999976,0.50750490,-3.78321800,3.76783900,0.01322589
-10.17999976,0.53826270,-3.72170300,3.89087100,0.01233391
-10.09999976,0.53826270,-3.64480800,4.01390200,0.01138041
-10.01999975,0.50750490,-3.59867100,4.13693400,0.01042692
-9.93999975,0.44598910,-3.59867100,4.18307100,0.00953494
-9.85999975,0.32295760,-3.66018700,4.15231300,0.00873524
-9.77999975,0.12303150,-3.81397600,4.02928100,0.00808932
-9.69999975,-0.15378940,-4.06003900,3.78321800,0.00762795
-9.61999975,-0.53826270,-4.41375400,3.44488200,0.00732037
-9.53999975,-1.03038900,-4.85974400,3.01427100,0.00719734
-9.45999975,-1.59940900,-5.38262700,2.52214600,0.00719734
-9.37999975,-2.21456700,-5.92089000,1.98388300,0.00728962
-9.29999974,-2.82972400,-6.47453200,1.43024100,0.00744341
-9.21999974,-3.36798700,-6.96665800,0.92273620,0.00756644
-9.13999974,-3.78321800,-7.38188900,0.49212600,0.00768947
-9.05999974,-4.01390200,-7.67408900,0.18454720,0.00778174
-8.97999974,-4.01390200,-7.82787800,0.01537894,0.00781250
-8.89999974,-3.76783900,-7.81250000,0.01537894,0.00784326
-8.81999974,-3.26033400,-7.62795300,0.18454720,0.00787402
-8.73999974,-2.52214600,-7.28961600,0.49212600,0.00787402
-8.65999974,-1.58403000,-6.79749000,0.92273620,0.00790477
-8.57999974,-0.53826270,-6.22846900,1.43024100,0.00790477
-8.49999973,0.53826270,-5.62869100,1.98388300,0.00790477
-8.41999973,1.58403000,-5.02891200,2.50676700,0.00787402
-8.33999973,2.52214600,-4.50602900,3.01427100,0.00787402
-8.25999973,3.26033400,-4.13693400,3.44488200,0.00784326
-8.17999973,3.76783900,-3.93700800,3.78321800,0.00784326
-8.09999973,4.01390200,-3.95238700,4.02928100,0.00787402
-8.01999973,4.01390200,-4.18307100,4.19845000,0.00793553
-7.93999973,3.78321800,-4.61368100,4.27534400,0.00805856
-7.85999973,3.36798700,-5.19808000,4.29072300,0.00821235
-7.77999972,2.82972400,-5.85937500,4.25996500,0.00836614
-7.69999972,2.21456700,-6.53604800,4.18307100,0.00851993
-7.61999972,1.58403000,-7.15120500,4.10617600,0.00858145
-7.53999972,1.01501000,-7.62795300,4.04466000,0.00855069
-7.45999972,0.52288380,-7.90477300,3.98314500,0.00839690
-7.37999972,0.13841040,-7.93553100,3.93700800,0.00805856
-7.29999972,-0.10765260,-7.68946800,3.90625000,0.00756644
-7.21999972,-0.23068400,-7.19734200,3.87549200,0.00688976
-7.13999972,-0.24606300,-6.45915300,3.82935500,0.00602854
-7.05999972,-0.18454720,-5.53641700,3.78321800,0.00501353
-6.97999971,-0.06151574,-4.49065000,3.72170300,0.00396777
-6.89999971,0.06151574,-3.41412400,3.64480800,0.00286048
-6.81999971,0.18454720,-2.35297700,3.59867100,0.00184547
-6.73999971,0.24606300,-1.41486200,3.59867100,0.00098425
-6.65999971,0.23068400,-0.67667320,3.66018700,0.00036909
-6.57999971,0.10765260,-0.15378940,3.81397600,0.00003076
-6.49999971,-0.13841040,0.09227362,4.06003900,0.00003076
-6.41999971,-0.47674700,0.09227362,4.41375400,0.00036909
-6.33999971,-0.92273620,-0.15378940,4.85974400,0.00098425
-6.25999970,-1.43024100,-0.58439960,5.38262700,0.00184547
-6.17999970,-1.96850400,-1.12266200,5.92089000,0.00286048
-6.09999970,-2.52214600,-1.73782000,6.47453200,0.00396777
-6.01999970,-3.01427100,-2.35297700,6.96665800,0.00501353
-5.93999970,-3.42950300,-2.92199800,7.38188900,0.00602854
-5.85999970,-3.73708200,-3.39874500,7.67408900,0.00688976
-5.77999970,-3.89087100,-3.76783900,7.82787800,0.00756644
-5.69999970,-3.90625000,-4.04466000,7.82787800,0.00805856
-5.61999970,-3.78321800,-4.21382900,7.67408900,0.00839690
-5.53999969,-3.53715500,-4.29072300,7.38188900,0.00855069
-5.45999969,-3.18344000,-4.29072300,6.96665800,0.00858145
-5.37999969,-2.75283000,-4.25996500,6.47453200,0.00851993
-5.29999969,-2.27608300,-4.18307100,5.92089000,0.00836614
-5.21999969,-1.76857800,-4.10617600,5.38262700,0.00821235
-5.13999969,-1.26107300,-4.02928100,4.85974400,0.00805856
-5.05999969,-0.75356790,-3.96776600,4.41375400,0.00793553
-4.97999969,-0.24606300,-3.93700800,4.06003900,0.00787402
-4.89999969,0.24606300,-3.92162900,3.81397600,0.00784326
-4.81999969,0.70743110,-3.92162900,3.66018700,0.00784326
-4.73999968,1.16879900,-3.93700800,3.59867100,0.00787402
-4.65999968,1.61478800,-3.93700800,3.59867100,0.00787402
-4.57999968,2.04539800,-3.95238700,3.64480800,0.00790477
-4.49999968,2.44525100,-3.95238700,3.72170300,0.00790477
-4.41999968,2.82972400,-3.95238700,3.78321800,0.00790477
-4.33999968,3.19881900,-3.93700800,3.84473400,0.00787402
-4.25999968,3.52177600,-3.92162900,3.89087100,0.00784326
-4.17999968,3.79859700,-3.92162900,3.90625000,0.00784326
-4.09999968,4.02928100,-3.92162900,3.92162900,0.00784326
-4.01999967,4.22920700,-3.92162900,3.93700800,0.00784326
-3.93999967,4.36761800,-3.93700800,3.93700800,0.00787402
-3.85999967,4.44451300,-3.95238700,3.95238700,0.00790477
-3.77999967,4.49065000,-3.95238700,3.95238700,0.00790477
-3.69999967,4.49065000,-3.95238700,3.95238700,0.00790477
-3.61999967,4.44451300,-3.93700800,3.95238700,0.00790477
-3.53999967,4.36761800,-3.93700800,3.93700800,0.00787402
-3.45999967,4.22920700,-3.92162900,3.92162900,0.00784326
-3.37999967,4.04466000,-3.92162900,3.92162900,0.00784326
-3.29999966,3.78321800,-3.93700800,3.92162900,0.00784326
-3.21999966,3.47564000,-3.96776600,3.92162900,0.00784326
-3.13999966,3.10654500,-4.02928100,3.93700800,0.00787402
-3.05999966,2.67593500,-4.10617600,3.95238700,0.00790477
-2.97999966,2.21456700,-4.18307100,3.95238700,0.00790477
-2.89999966,1.73782000,-4.25996500,3.95238700,0.00790477
-2.81999966,1.26107300,-4.29072300,3.95238700,0.00790477
-2.73999966,0.83046260,-4.27534400,3.93700800,0.00787402
-2.65999966,0.44598910,-4.18307100,3.92162900,0.00784326
-2.57999966,0.12303150,-4.02928100,3.92162900,0.00784326
-2.49999965,-0.10765260,-3.79859700,3.92162900,0.00784326
-2.41999965,-0.26144190,-3.49101900,3.92162900,0.00784326
-2.33999965,-0.33833660,-3.10654500,3.93700800,0.00787402
-2.25999965,-0.33833660,-2.67593500,3.95238700,0.00790477
-2.17999965,-0.30757870,-2.21456700,3.95238700,0.00790477
-2.09999965,-0.23068400,-1.73782000,3.95238700,0.00790477
-2.01999965,-0.15378940,-1.26107300,3.95238700,0.00790477
-1.93999965,-0.09227362,-0.83046260,3.95238700,0.00787402
-1.85999965,-0.03075787,-0.44598910,3.95238700,0.00784326
-1.77999964,0.00000000,-0.12303150,3.93700800,0.00784326
-1.69999964,0.00000000,0.10765260,3.90625000,0.00784326
-1.61999964,-0.03075787,0.26144190,3.84473400,0.00784326
-1.53999964,-0.09227362,0.33833660,3.75246000,0.00787402
-1.45999964,-0.15378940,0.33833660,3.61405000,0.00790477
-1.37999964,-0.23068400,0.30757870,3.47564000,0.00790477
-1.29999964,-0.30757870,0.23068400,3.33722900,0.00790477
-1.21999964,-0.35371550,0.16916830,3.36798700,0.00787402
-1.13999964,-0.35371550,0.09227362,3.62942900,0.00784326
-1.05999963,-0.27682080,0.04613681,3.95238700,0.00781250
-0.97999963,-0.12303150,0.01537894,4.04466000,0.00781250
-0.89999963,0.15378940,0.00000000,3.62942900,0.00787402
-0.81999963,0.53826270,-0.01537894,2.39911400,0.00802781
-0.73999963,1.01501000,0.00000000,0.27682080,0.00824311
-0.65999963,1.59940900,0.00000000,-2.61441900,0.00855069
-0.57999963,2.21456700,0.00000000,-5.82861700,0.00885827
-0.49999963,2.82972400,0.00000000,-8.65834000,0.00913509
-0.41999963,3.35260800,0.00000000,-10.02707000,0.00928888
-0.33999963,3.75246000,0.00000000,-8.76599300,0.00922736
-0.25999962,3.96776600,0.00000000,-3.89087100,0.00895054
-0.17999962,3.98314500,0.00000000,5.36724900,0.00830463
-0.09999962,3.81397600,0.00000000,19.37746000,0.00728962
-0.01999962,3.47564000,0.00000000,38.10900000,0.00590551
0.06000038,2.98351400,0.00000000,60.97748000,0.00418307
0.14000038,2.39911400,0.00000000,86.98327000,0.00215305
0.22000038,1.72244100,0.00000000,114.75760000,0.00000000
0.30000038,0.98425190,0.00000000,142.71650000,-0.00218381
0.38000038,0.06151574,0.00000000,169.21440000,-0.00418307
0.46000039,-1.07652500,0.00000000,192.74420000,-0.00590551
0.54000039,-2.30684000,-0.01537894,212.07550000,-0.00710507
0.62000039,-3.44488200,0.00000000,226.33180000,-0.00775098
0.70000039,-4.30610200,0.01537894,235.12860000,-0.00775098
0.78000039,-4.69057600,0.04613681,238.54270000,-0.00710507
0.86000039,-4.52140800,0.09227362,237.00480000,-0.00590551
0.94000039,-3.86011300,0.16916830,231.25310000,-0.00418307
1.02000039,-2.98351400,0.23068400,222.24100000,-0.00218381
1.10000039,-2.33759800,0.30757870,210.89140000,0.00000000
1.18000039,-2.70669300,0.33833660,198.04990000,0.00215305
1.26000040,-4.85974400,0.29219980,184.37810000,0.00409080
1.34000040,-9.16584600,0.19992620,170.33710000,0.00578248
1.42000040,-15.62500000,0.06151574,156.15770000,0.00722810
1.50000040,-24.05266000,-0.06151574,141.91680000,0.00842766
1.58000040,-34.03359000,-0.13841040,127.50680000,0.00944267
1.66000040,-45.10642000,-0.16916830,112.85060000,0.01036540
1.74000040,-56.87131000,-0.13841040,97.88693000,0.01122662
1.82000040,-69.09756000,-0.07689468,82.64640000,0.01196481
1.90000040,-81.86208000,-0.09227362,67.32899000,0.01248770
1.98000041,-95.78001000,-0.35371550,52.22687000,0.01251845
2.06000041,-111.54340000,-1.04576800,37.80142000,0.01178027
2.14000041,-129.50600000,-2.10691400,24.56016000,0.01039616
2.22000041,-149.82160000,-3.32185000,12.93369000,0.00870448
2.30000041,-172.33640000,-4.47527100,3.29109200,0.00704355
2.38000041,-196.68120000,-5.32111200,-4.15231300,0.00584400
2.46000041,-222.28710000,-5.72096400,-9.42728800,0.00529035
2.54000041,-248.46210000,-5.70558500,-12.71838000,0.00532111
2.62000041,-274.49860000,-5.53641700,-14.42544000,0.00550566
2.70000042,-299.85850000,-5.69020700,-15.11749000,0.00507505
2.78000042,-324.29560000,-7.10506800,-15.39431000,0.00249139
2.86000042,-347.71770000,-10.68836000,-15.51735000,-0.00372170
2.94000042,-369.86340000,-16.90145000,-15.62500000,-0.01436393
3.02000042,-390.45580000,-25.88275000,-15.70189000,-0.02977362
3.10000042,-409.21810000,-37.49385000,-15.62500000,-0.04976624
3.18000042,-425.88890000,-51.35027000,-15.24053000,-0.07378814
3.26000042,-440.26820000,-66.89837000,-14.39468000,-0.10094730
3.34000042,-452.18690000,-83.56915000,-13.02596000,-0.13019810
3.42000042,-461.56800000,-100.90120000,-11.14973000,-0.16074060
3.50000043,-468.45780000,-118.71000000,-8.98129900,-0.19195990
3.58000043,-473.10220000,-137.22620000,-6.73597400,-0.22394810
3.66000043,-475.79350000,-156.89590000,-4.56754400,-0.25704350
3.74000043,-476.67010000,-177.85740000,-2.55290300,-0.29133860
3.82000043,-475.74740000,-200.17220000,-0.78432570,-0.32692550
3.90000043,-473.00990000,-223.71740000,0.72281000,-0.36368110
3.98000043,-468.39620000,-248.20070000,1.98388300,-0.40129800
4.06000043,-461.81410000,-273.16060000,3.04502900,-0.43919170
4.14000043,-453.20190000,-298.04380000,3.92162900,-0.47662400
4.22000044,-442.59040000,-322.20410000,4.69057600,-0.51261070
4.30000044,-430.05660000,-345.10330000,5.38262700,-0.54610600
4.38000044,-415.87720000,-366.35700000,5.99778500,-0.57624880
4.46000044,-400.57510000,-385.71910000,6.58218500,-0.60217770
4.54000044,-384.68870000,-402.83580000,7.13582600,-0.62300070
4.62000044,-368.72540000,-417.38430000,7.62795300,-0.63807210
4.70000044,-353.11580000,-429.13390000,8.04318300,-0.64689960
4.78000044,-338.09050000,-437.93060000,8.38152000,-0.64936020
4.86000044,-323.69590000,-443.71310000,8.61220400,-0.64563850
4.94000045,-309.77790000,-446.51200000,8.73523500,-0.63622660
5.02000045,-296.07530000,-446.49660000,8.75061400,-0.62180120
5.10000045,-282.01900000,-443.85150000,8.68909800,-0.60331570
5.18000045,-267.19360000,-438.91480000,8.56606700,-0.58172370
5.26000045,-251.63010000,-432.05580000,8.39689900,-0.55800930
5.34000045,-235.63610000,-423.52050000,8.19697300,-0.53300320
5.42000045,-219.64200000,-413.47810000,7.96628900,-0.50725880
5.50000045,-204.15540000,-402.03610000,7.70484700,-0.48111470
5.58000045,-189.57610000,-389.22550000,7.39726800,-0.45466290
5.66000045,-176.16570000,-375.03070000,7.02817400,-0.42784200
5.74000046,-163.93950000,-359.48260000,6.61294300,-0.40059050
5.82000046,-152.71280000,-342.65810000,6.16695300,-0.37281620
5.90000046,-141.85530000,-324.60320000,5.69020700,-0.34433440
5.98000046,-130.78250000,-305.56410000,5.21345900,-0.31526820
6.06000046,-119.35590000,-286.07900000,4.76747000,-0.28629430
6.14000046,-107.66790000,-266.73230000,4.36761800,-0.25821240
6.22000046,-95.96456000,-248.12370000,4.04466000,-0.23188360
6.30000046,-84.58415000,-230.76090000,3.81397600,-0.20813850
6.38000046,-73.88041000,-214.90520000,3.66018700,-0.18740770
6.46000047,-64.06865000,-200.66440000,3.59867100,-0.16990650
6.54000047,-55.25652000,-187.86910000,3.59867100,-0.15538880
6.62000047,-47.42864000,-176.18110000,3.64480800,-0.14330090
6.70000047,-40.18516000,-164.90830000,3.72170300,-0.13250490
6.78000047,-33.21850000,-153.52790000,3.78321800,-0.12201650
6.86000047,-26.51329000,-141.96300000,3.84473400,-0.11152810
6.94000047,-20.16179000,-130.39800000,3.89087100,-0.10110110
7.02000047,-14.37930000,-119.12520000,3.90625000,-0.09104331
7.10000047,-9.36577200,-108.59070000,3.92162900,-0.08181594
7.18000048,-5.32111200,-99.13262000,3.93700800,-0.07388041
7.26000048,-2.33759800,-90.98178000,3.93700800,-0.06754429
7.34000048,-0.39985230,-84.15353000,3.95238700,-0.06286909
7.42000048,0.63053640,-78.49409000,3.95238700,-0.05970103
7.50000048,1.04576800,-73.43443000,3.95238700,-0.05736344
7.58000048,1.15342000,-68.45164000,3.95238700,-0.05521039
7.66000048,1.07652500,-63.37659000,3.93700800,-0.05296506
7.74000048,0.81508360,-58.28617000,3.92162900,-0.05062746
7.82000048,0.33833660,-53.33415000,3.92162900,-0.04822835
7.90000048,-0.43061020,-48.78198000,3.92162900,-0.04598302
7.98000049,-1.58403000,-44.87574000,3.92162900,-0.04404528
8.06000049,-3.18344000,-41.78457000,3.93700800,-0.04263041
8.14000049,-5.18270100,-39.52387000,3.95238700,-0.04176919
8.22000049,-7.53567900,-37.97059000,3.95238700,-0.04136934
8.30000049,-10.05782000,-36.74028000,3.95238700,-0.04124631
8.38000049,-12.56459000,-35.38693000,3.95238700,-0.04106176
8.46000049,-14.93295000,-33.67987000,3.93700800,-0.04072342
8.54000049,-17.05524000,-31.51144000,3.92162900,-0.04023130
8.62000049,-18.85458000,-28.91240000,3.92162900,-0.03958539
8.70000050,-20.26944000,-25.92889000,3.92162900,-0.03884719
8.78000050,-21.28445000,-22.69931000,3.92162900,-0.03804749
8.86000050,-21.93036000,-19.37746000,3.93700800,-0.03727854
8.94000050,-22.23794000,-16.08637000,3.95238700,-0.03657111
9.02000050,-22.31484000,-12.88755000,3.95238700,-0.03592520
9.10000050,-22.25332000,-9.75024500,3.95238700,-0.03521777
9.18000050,-22.17643000,-6.61294300,3.95238700,-0.03444882
9.26000050,-22.23794000,-3.47564000,3.93700800,-0.03358760
9.34000050,-22.51476000,-0.41523130,3.92162900,-0.03269562
9.42000051,-23.11454000,2.52214600,3.92162900,-0.03180364
9.50000051,-24.03728000,5.25959600,3.92162900,-0.03097318
9.58000051,-25.28297000,7.73560500,3.92162900,-0.03029651
9.66000051,-26.79011000,9.90403500,3.93700800,-0.02974286
9.74000051,-28.46641000,11.76489000,3.95238700,-0.02931225
9.82000051,-30.17347000,13.33354000,3.95238700,-0.02894316
9.90000051,-31.80364000,14.70226000,3.95238700,-0.02854331
9.98000051,-33.23388000,15.93258000,3.95238700,-0.02792815
10.06000051,-34.32578000,17.07062000,3.93700800,-0.02706693
10.14000051,-35.03321000,18.14714000,3.93700800,-0.02589813
10.22000052,-35.32542000,19.13140000,3.92162900,-0.02439099
10.30000052,-35.18700000,20.06951000,3.90625000,-0.02260704
10.38000052,-34.64874000,20.89997000,3.89087100,-0.02057702
10.46000052,-33.77214000,21.63816000,3.84473400,-0.01836245
10.54000052,-32.60334000,22.22256000,3.78321800,-0.01602485
10.62000052,-31.18848000,22.63779000,3.72170300,-0.01362574
10.70000052,-29.55832000,22.83772000,3.64480800,-0.01116511
10.78000052,-27.69746000,22.77620000,3.59867100,-0.00867372
10.86000052,-25.62131000,22.37635000,3.58329200,-0.00615158
10.94000053,-23.34522000,21.59203000,3.64480800,-0.00362943
11.02000053,-20.89997000,20.37709000,3.79859700,-0.00119956
11.10000053,-18.30093000,18.74692000,4.07541800,0.00116880
11.18000053,-15.59424000,16.70152000,4.45989200,0.00341412
11.26000053,-12.79527000,14.31779000,4.95201700,0.00550566
11.34000053,-9.95017100,11.65723000,5.53641700,0.00747416
11.42000053,-7.08968900,8.78137200,6.16695300,0.00925812
11.50000053,-4.22920700,5.78248000,6.78211100,0.01088829
11.58000053,-1.36872500,2.70669300,7.32037400,0.01236467
11.66000053,1.43024100,-0.38447340,7.72022600,0.01368725
