Time,Channel A,Channel B,Channel C,Channel D
(ns),(mV),(mV),(mV),(V)

-15.71428583,0.24606300,0.00000000,4.04466000,0.00784326
-15.63428582,0.75356790,0.00000000,4.36761800,0.00784326
-15.55428582,1.26107300,0.00000000,4.76747000,0.00787402
-15.47428582,1.78395700,0.00000000,5.21345900,0.00790477
-15.39428582,2.27608300,0.00000000,5.69020700,0.00790477
-15.31428582,2.75283000,0.00000000,6.16695300,0.00790477
-15.23428582,3.18344000,0.00000000,6.61294300,0.00790477
-15.15428582,3.53715500,0.00000000,7.04355200,0.00787402
-15.07428582,3.78321800,0.00000000,7.39726800,0.00784326
-14.99428582,3.90625000,0.00000000,7.70484700,0.00784326
-14.91428581,3.90625000,0.00000000,7.96628900,0.00784326
-14.83428581,3.78321800,0.00000000,8.16621500,0.00784326
-14.75428581,3.53715500,0.00000000,8.30462600,0.00787402
-14.67428581,3.18344000,0.00000000,8.39689900,0.00790477
-14.59428581,2.75283000,0.00000000,8.44303500,0.00790477
-14.51428581,2.27608300,0.00000000,8.44303500,0.00790477
-14.43428581,1.76857800,0.00000000,8.39689900,0.00787402
-14.35428581,1.26107300,0.00000000,8.30462600,0.00787402
-14.27428581,0.75356790,-0.01537894,8.16621500,0.00784326
-14.19428580,0.24606300,0.00000000,7.96628900,0.00784326
-14.11428580,-0.24606300,0.01537894,7.70484700,0.00787402
-14.03428580,-0.70743110,0.04613681,7.39726800,0.00793553
-13.95428580,-1.16879900,0.09227362,7.04355200,0.00805856
-13.87428580,-1.61478800,0.16916830,6.61294300,0.00821235
-13.79428580,-2.04539800,0.23068400,6.16695300,0.00836614
-13.71428580,-2.44525100,0.30757870,5.69020700,0.00851993
-13.63428580,-2.82972400,0.35371550,5.21345900,0.00858145
-13.55428580,-3.19881900,0.33833660,4.76747000,0.00855069
-13.47428580,-3.52177600,0.27682080,4.38299700,0.00839690
-13.39428579,-3.79859700,0.10765260,4.06003900,0.00805856
-13.31428579,-4.02928100,-0.13841040,3.79859700,0.00756644
-13.23428579,-4.22920700,-0.49212600,3.62942900,0.00688976
-13.15428579,-4.36761800,-0.92273620,3.50639700,0.00602854
-13.07428579,-4.44451300,-1.43024100,3.44488200,0.00501353
-12.99428579,-4.49065000,-1.96850400,3.41412400,0.00396777
-12.91428579,-4.49065000,-2.52214600,3.41412400,0.00286048
-12.83428579,-4.44451300,-3.02965000,3.42950300,0.00184547
-12.75428579,-4.36761800,-3.44488200,3.50639700,0.00098425
-12.67428578,-4.22920700,-3.75246000,3.61405000,0.00036909
-12.59428578,-4.04466000,-3.90625000,3.79859700,0.00003076
-12.51428578,-3.78321800,-3.89087100,4.06003900,0.00003076
-12.43428578,-3.47564000,-3.70632400,4.42913300,0.00036909
-12.35428578,-3.10654500,-3.35260800,4.87512300,0.00098425
-12.27428578,-2.67593500,-2.86048200,5.38262700,0.00184547
-12.19428578,-2.21456700,-2.27608300,5.92089000,0.00286048
-12.11428578,-1.73782000,-1.67630400,6.47453200,0.00396777
-12.03428578,-1.26107300,-1.09190400,6.96665800,0.00501353
-11.95428577,-0.83046260,-0.58439960,7.38188900,0.00602854
-11.87428577,-0.44598910,-0.23068400,7.67408900,0.00688976
-11.79428577,-0.12303150,-0.03075787,7.82787800,0.00756644
-11.71428577,0.10765260,-0.01537894,7.82787800,0.00805856
-11.63428577,0.26144190,-0.16916830,7.67408900,0.00839690
-11.55428577,0.33833660,-0.49212600,7.38188900,0.00855069
-11.47428577,0.33833660,-0.92273620,6.96665800,0.00858145
-11.39428577,0.30757870,-1.43024100,6.47453200,0.00851993
-11.31428577,0.23068400,-1.98388300,5.92089000,0.00836614
-11.23428577,0.16916830,-2.50676700,5.38262700,0.00821235
-11.15428576,0.09227362,-2.99889300,4.85974400,0.00805856
-11.07428576,0.04613681,-3.42950300,4.41375400,0.00793553
-10.99428576,0.01537894,-3.78321800,4.06003900,0.00787402
-10.91428576,0.00000000,-4.04466000,3.81397600,0.00784326
-10.83428576,-0.01537894,-4.24458600,3.66018700,0.00784326
-10.75428576,0.00000000,-4.36761800,3.59867100,0.00787402
-10.67428576,0.00000000,-4.45989200,3.59867100,0.00787402
-10.59428576,0.00000000,-4.49065000,3.64480800,0.00790477
-10.51428576,0.00000000,-4.49065000,3.72170300,0.00790477
-10.43428575,0.00000000,-4.45989200,3.78321800,0.00787402
-10.35428575,0.00000000,-4.36761800,3.84473400,0.00787402
-10.27428575,0.00000000,-4.24458600,3.89087100,0.00784326
-10.19428575,0.00000000,-4.04466000,3.90625000,0.00784326
-10.11428575,0.00000000,-3.78321800,3.92162900,0.00787402
-10.03428575,0.00000000,-3.42950300,3.93700800,0.00793553
-9.95428575,0.00000000,-2.99889300,3.93700800,0.00805856
-9.87428575,0.00000000,-2.50676700,3.95238700,0.00821235
-9.79428575,0.00000000,-1.98388300,3.95238700,0.00836614
-9.71428574,0.00000000,-1.43024100,3.95238700,0.00851993
-9.63428574,0.00000000,-0.92273620,3.95238700,0.00858145
-9.55428574,0.00000000,-0.49212600,3.93700800,0.00855069
-9.47428574,0.00000000,-0.18454720,3.93700800,0.00836614
-9.39428574,0.00000000,-0.01537894,3.92162900,0.00805856
-9.31428574,0.00000000,-0.01537894,3.90625000,0.00759720
-9.23428574,0.00000000,-0.18454720,3.89087100,0.00698204
-9.15428574,0.00000000,-0.49212600,3.84473400,0.00621309
-9.07428574,0.00000000,-0.92273620,3.78321800,0.00535187
-8.99428574,0.00000000,-1.43024100,3.72170300,0.00442913
-8.91428573,0.00000000,-1.98388300,3.64480800,0.00347564
-8.83428573,0.00000000,-2.50676700,3.59867100,0.00255290
-8.75428573,0.00000000,-3.01427100,3.59867100,0.00166093
-8.67428573,0.00000000,-3.44488200,3.66018700,0.00092274
-8.59428573,0.00000000,-3.78321800,3.81397600,0.00027682
-8.51428573,0.00000000,-4.02928100,4.06003900,-0.00024606
-8.43428573,0.00000000,-4.19845000,4.41375400,-0.00061516
-8.35428573,0.00000000,-4.27534400,4.85974400,-0.00086122
-8.27428573,0.00000000,-4.29072300,5.38262700,-0.00101501
-8.19428572,0.00000000,-4.25996500,5.92089000,-0.00107653
-8.11428572,0.00000000,-4.18307100,6.47453200,-0.00107653
-8.03428572,0.00000000,-4.10617600,6.96665800,-0.00101501
-7.95428572,0.00000000,-4.02928100,7.38188900,-0.00086122
-7.87428572,0.00000000,-3.96776600,7.67408900,-0.00061516
-7.79428572,0.00000000,-3.92162900,7.82787800,-0.00024606
-7.71428572,0.00000000,-3.92162900,7.82787800,0.00027682
-7.63428572,0.00000000,-3.96776600,7.67408900,0.00098425
-7.55428572,0.00000000,-4.02928100,7.38188900,0.00187623
-7.47428572,0.00000000,-4.10617600,6.96665800,0.00286048
-7.39428571,0.00000000,-4.18307100,6.47453200,0.00393701
-7.31428571,0.00000000,-4.25996500,5.92089000,0.00504429
-7.23428571,0.00000000,-4.29072300,5.38262700,0.00605930
-7.15428571,0.00000000,-4.27534400,4.85974400,0.00688976
-7.07428571,0.00000000,-4.19845000,4.41375400,0.00750492
-6.99428571,0.00000000,-4.02928100,4.06003900,0.00781250
-6.91428571,0.00000000,-3.78321800,3.81397600,0.00778174
-6.83428571,0.00000000,-3.44488200,3.66018700,0.00741265
-6.75428571,0.00000000,-3.01427100,3.59867100,0.00670522
-6.67428570,0.00000000,-2.50676700,3.59867100,0.00572097
-6.59428570,0.00000000,-1.98388300,3.64480800,0.00455217
-6.51428570,0.00000000,-1.43024100,3.72170300,0.00335261
-6.43428570,0.00000000,-0.92273620,3.78321800,0.00218381
-6.35428570,0.00000000,-0.49212600,3.84473400,0.00116880
-6.27428570,-0.01537894,-0.18454720,3.89087100,0.00046137
-6.19428570,0.00000000,-0.01537894,3.90625000,0.00006152
-6.11428570,0.01537894,-0.01537894,3.92162900,0.00003076
-6.03428570,0.04613681,-0.18454720,3.93700800,0.00033834
-5.95428569,0.09227362,-0.49212600,3.93700800,0.00098425
-5.87428569,0.16916830,-0.92273620,3.95238700,0.00184547
-5.79428569,0.23068400,-1.43024100,3.95238700,0.00286048
-5.71428569,0.30757870,-1.98388300,3.95238700,0.00396777
-5.63428569,0.35371550,-2.50676700,3.95238700,0.00501353
-5.55428569,0.33833660,-3.01427100,3.93700800,0.00602854
-5.47428569,0.27682080,-3.44488200,3.93700800,0.00688976
-5.39428569,0.10765260,-3.78321800,3.92162900,0.00756644
-5.31428569,-0.13841040,-4.02928100,3.90625000,0.00805856
-5.23428569,-0.49212600,-4.19845000,3.89087100,0.00839690
-5.15428568,-0.92273620,-4.27534400,3.84473400,0.00855069
-5.07428568,-1.43024100,-4.29072300,3.78321800,0.00858145
-4.99428568,-1.96850400,-4.25996500,3.72170300,0.00851993
-4.91428568,-2.52214600,-4.18307100,3.64480800,0.00836614
-4.83428568,-3.01427100,-4.10617600,3.59867100,0.00821235
-4.75428568,-3.44488200,-4.02928100,3.59867100,0.00805856
-4.67428568,-3.73708200,-3.96776600,3.66018700,0.00793553
-4.59428568,-3.90625000,-3.92162900,3.81397600,0.00787402
-4.51428568,-3.90625000,-3.92162900,4.04466000,0.00784326
-4.43428567,-3.73708200,-3.96776600,4.36761800,0.00784326
-4.35428567,-3.44488200,-4.02928100,4.76747000,0.00787402
-4.27428567,-3.01427100,-4.10617600,5.21345900,0.00787402
-4.19428567,-2.52214600,-4.18307100,5.69020700,0.00790477
-4.11428567,-1.96850400,-4.25996500,6.16695300,0.00790477
-4.03428567,-1.43024100,-4.29072300,6.61294300,0.00790477
-3.95428567,-0.93811510,-4.27534400,7.02817400,0.00787402
-3.87428567,-0.49212600,-4.18307100,7.39726800,0.00784326
-3.79428567,-0.13841040,-4.02928100,7.70484700,0.00784326
-3.71428566,0.12303150,-3.79859700,7.96628900,0.00784326
-3.63428566,0.30757870,-3.49101900,8.19697300,0.00784326
-3.55428566,0.43061020,-3.10654500,8.39689900,0.00787402
-3.47428566,0.50750490,-2.67593500,8.56606700,0.00790477
-3.39428566,0.53826270,-2.21456700,8.68909800,0.00790477
-3.31428566,0.53826270,-1.73782000,8.75061400,0.00790477
-3.23428566,0.50750490,-1.26107300,8.75061400,0.00790477
-3.15428566,0.43061020,-0.83046260,8.64296200,0.00787402
-3.07428566,0.30757870,-0.44598910,8.42765700,0.00784326
-2.99428566,0.12303150,-0.12303150,8.07394100,0.00784326
-2.91428565,-0.13841040,0.10765260,7.56643700,0.00784326
-2.83428565,-0.49212600,0.26144190,6.92052100,0.00784326
-2.75428565,-0.93811510,0.33833660,6.10543700,0.00787402
-2.67428565,-1.43024100,0.33833660,5.18270100,0.00790477
-2.59428565,-1.96850400,0.30757870,4.19845000,0.00790477
-2.51428565,-2.52214600,0.23068400,3.16806100,0.00790477
-2.43428565,-3.01427100,0.15378940,2.19918800,0.00790477
-2.35428565,-3.44488200,0.09227362,1.32258800,0.00787402
-2.27428565,-3.73708200,0.03075787,0.63053640,0.00784326
-2.19428564,-3.90625000,0.00000000,0.15378940,0.00784326
-2.11428564,-3.90625000,0.00000000,-0.09227362,0.00784326
-2.03428564,-3.73708200,0.03075787,-0.07689468,0.00784326
-1.95428564,-3.44488200,0.09227362,0.15378940,0.00787402
-1.87428564,-3.01427100,0.15378940,0.58439960,0.00790477
-1.79428564,-2.52214600,0.23068400,1.12266200,0.00790477
-1.71428564,-1.96850400,0.30757870,1.73782000,0.00790477
-1.63428564,-1.43024100,0.33833660,2.38373500,0.00790477
-1.55428564,-0.93811510,0.33833660,2.99889300,0.00787402
-1.47428563,-0.49212600,0.26144190,3.53715500,0.00784326
-1.39428563,-0.13841040,0.10765260,3.86011300,0.00784326
-1.31428563,0.12303150,-0.12303150,3.90625000,0.00784326
-1.23428563,0.30757870,-0.44598910,3.59867100,0.00784326
-1.15428563,0.43061020,-0.83046260,2.95275600,0.00787402
-1.07428563,0.50750490,-1.26107300,2.01464100,0.00790477
-0.99428563,0.53826270,-1.73782000,0.93811510,0.00790477
-0.91428563,0.53826270,-2.21456700,-0.07689468,0.00790477
-0.83428563,0.50750490,-2.67593500,-0.59977850,0.00790477
-0.75428563,0.43061020,-3.10654500,-0.29219980,0.00787402
-0.67428562,0.29219980,-3.49101900,0.87659940,0.00784326
-0.59428562,0.10765260,-3.79859700,2.78358700,0.00784326
-0.51428562,-0.12303150,-4.02928100,5.15194400,0.00784326
-0.43428562,-0.41523130,-4.18307100,7.68946800,0.00784326
-0.35428562,-0.73818890,-4.27534400,10.13472000,0.00787402
-0.27428562,-1.10728300,-4.29072300,12.45694000,0.00790477
-0.19428562,-1.50713600,-4.25996500,14.77916000,0.00790477
-0.11428562,-1.90698800,-4.18307100,17.60888000,0.00790477
-0.03428562,-2.35297700,-4.10617600,21.68430000,0.00790477
0.04571439,-2.84510300,-4.01390200,27.94353000,0.00787402
0.12571439,-3.32185000,-3.95238700,37.29392000,0.00784326
0.20571439,-3.75246000,-3.92162900,50.56594000,0.00784326
0.28571439,-4.04466000,-3.93700800,68.23634000,0.00784326
0.36571439,-4.15231300,-3.99852300,90.36662000,0.00784326
0.44571439,-4.06003900,-4.12155500,116.48010000,0.00787402
0.52571439,-3.76783900,-4.27534400,145.57700000,0.00790477
0.60571439,-3.38336600,-4.42913300,176.10420000,0.00790477
0.68571439,-3.06040800,-4.56754400,206.15460000,0.00790477
0.76571439,-3.10654500,-4.62906000,233.62140000,0.00787402
0.84571440,-3.79859700,-4.61368100,256.42840000,0.00787402
0.92571440,-5.10580700,-4.45989200,272.77620000,0.00784326
1.00571440,-6.87438400,-4.13693400,281.31150000,0.00784326
1.08571440,-8.82750900,-3.66018700,281.34230000,0.00787402
1.16571440,-10.67298000,-2.99889300,272.88390000,0.00793553
1.24571440,-12.21087000,-2.18380900,256.64370000,0.00805856
1.32571440,-13.42581000,-1.24569400,233.95970000,0.00821235
1.40571440,-14.53309000,-0.24606300,206.63140000,0.00836614
1.48571440,-16.07099000,0.78432570,176.70400000,0.00851993
1.56571441,-18.99298000,1.72244100,146.25370000,0.00851993
1.64571441,-24.32948000,2.49138800,117.14140000,0.00833538
1.72571441,-32.61872000,3.12192400,90.85875000,0.00805856
1.80571441,-44.07603000,3.66018700,68.43627000,0.00787402
1.88571441,-58.62450000,4.19845000,50.33526000,0.00790477
1.96571441,-75.84891000,4.82898600,36.49422000,0.00833538
2.04571441,-95.13409000,5.58255400,26.46715000,0.00925812
2.12571441,-115.78800000,6.44377400,19.46973000,0.01054995
2.20571441,-137.21090000,7.32037400,14.60999000,0.01199557
2.28571442,-158.95670000,7.99704600,10.96518000,0.01322589
2.36571442,-181.08700000,8.02780400,7.79712100,0.01337968
2.44571442,-203.81700000,7.02817400,4.62906000,0.01174951
2.52571442,-227.10070000,4.93663800,1.27645200,0.00827387
2.60571442,-250.83050000,1.84547200,-2.19918800,0.00310655
2.68571442,-274.79080000,-1.99926200,-5.59793300,-0.00335261
2.76571442,-298.64360000,-6.25922700,-8.61220400,-0.01051919
2.84571442,-322.01950000,-10.70374000,-10.98056000,-0.01793184
2.92571442,-344.45740000,-15.19439000,-12.53383000,-0.02537525
3.00571442,-365.58810000,-19.82345000,-13.24126000,-0.03300320
3.08571443,-385.08860000,-24.96001000,-13.37967000,-0.04152313
3.16571443,-402.89740000,-31.46530000,-13.27202000,-0.05228839
3.24571443,-419.07600000,-40.23130000,-13.01058000,-0.06692913
3.32571443,-433.42460000,-51.75012000,-12.61073000,-0.08633735
3.40571443,-445.74310000,-66.20631000,-12.10322000,-0.11109740
3.48571443,-455.81630000,-83.50762000,-11.38041000,-0.14124010
3.56571443,-463.42890000,-103.26960000,-10.41154000,-0.17618110
3.64571443,-468.44240000,-124.87700000,-9.15046700,-0.21502830
3.72571443,-470.74920000,-147.65320000,-7.58181600,-0.25639760
3.80571444,-470.44170000,-170.93690000,-5.75172200,-0.29893580
3.88571444,-467.65810000,-194.23600000,-3.78321800,-0.34132010
3.96571444,-462.79830000,-217.50430000,-1.79933500,-0.38262800
4.04571444,-456.32380000,-240.75720000,0.09227362,-0.42224410
4.12571444,-448.63430000,-263.91790000,1.79933500,-0.45952260
4.20571444,-439.99140000,-286.80180000,3.27571300,-0.49390990
4.28571444,-430.59480000,-309.25500000,4.49065000,-0.52509840
4.36571444,-420.50630000,-330.98550000,5.42876500,-0.55284200
4.44571444,-409.64870000,-351.70090000,6.12081600,-0.57704850
4.52571445,-397.91460000,-371.06300000,6.59756400,-0.59756400
4.60571445,-385.16550000,-388.71800000,6.90514200,-0.61435780
4.68571445,-371.20140000,-404.38910000,7.12044700,-0.62730680
4.76571445,-355.94550000,-417.96870000,7.27423700,-0.63638040
4.84571445,-339.73610000,-429.37990000,7.42802600,-0.64148620
4.92571445,-323.01920000,-438.42270000,7.58181600,-0.64240900
5.00571445,-306.30220000,-444.91260000,7.75098400,-0.63890250
5.08571445,-290.06210000,-448.69580000,7.93553100,-0.63078250
5.16571445,-274.65240000,-449.61860000,8.07394100,-0.61795650
5.24571445,-260.21160000,-447.68080000,8.18159400,-0.60054750
5.32571446,-246.67810000,-442.92870000,8.22773100,-0.57886320
5.40571446,-233.77520000,-435.56220000,8.21235200,-0.55345720
5.48571446,-220.88770000,-425.82740000,8.13545700,-0.52497540
5.56571446,-207.43110000,-414.13940000,8.05856200,-0.49434050
5.64571446,-193.34400000,-401.03650000,7.96628900,-0.46259840
5.72571446,-178.79550000,-386.96480000,7.88939400,-0.43073330
5.80571446,-164.13940000,-372.26250000,7.84325700,-0.39954480
5.88571446,-149.79080000,-357.22200000,7.84325700,-0.36961740
5.96571446,-136.14970000,-341.96600000,7.88939400,-0.34125860
6.04571447,-123.49290000,-326.47940000,7.96628900,-0.31449930
6.12571447,-111.91250000,-310.71600000,8.05856200,-0.28915480
6.20571447,-101.31640000,-294.56810000,8.13545700,-0.26482530
6.28571447,-91.21247000,-277.78970000,8.21235200,-0.24095720
6.36571447,-81.15465000,-260.36540000,8.24311000,-0.21718140
6.44571447,-71.09682000,-242.60270000,8.21235200,-0.19377460
6.52571447,-61.17741000,-224.99380000,8.12007800,-0.17135210
6.60571447,-51.61171000,-208.07700000,7.96628900,-0.15065210
6.68571447,-42.72268000,-192.34440000,7.70484700,-0.13244340
6.76571448,-34.77177000,-178.14960000,7.36651000,-0.11724900
6.84571448,-27.92815000,-165.61580000,6.95127900,-0.10528420
6.92571448,-22.22256000,-154.65060000,6.45915300,-0.09642594
7.00571448,-17.57812000,-144.93110000,5.93626900,-0.09008981
7.08571448,-13.61036000,-135.78060000,5.38262700,-0.08513779
7.16571448,-9.99630800,-126.58400000,4.87512300,-0.08049335
7.24571448,-6.65908000,-117.21820000,4.42913300,-0.07569513
7.32571448,-3.62942900,-107.77560000,4.10617600,-0.07062007
7.40571448,-1.06114600,-98.56360000,3.93700800,-0.06536048
7.48571448,0.89197830,-89.90526000,3.93700800,-0.06025467
7.56571449,2.09153500,-82.16965000,4.10617600,-0.05564100
7.64571449,2.47600900,-75.55672000,4.42913300,-0.05188853
7.72571449,2.03002000,-70.11256000,4.87512300,-0.04905881
7.80571449,0.89197830,-65.69881000,5.38262700,-0.04718258
7.88571449,-0.67667320,-61.80795000,5.93626900,-0.04582923
7.96571449,-2.38373500,-57.90170000,6.45915300,-0.04450664
8.04571449,-4.07541800,-53.84166000,6.95127900,-0.04312254
8.12571449,-5.69020700,-49.58169000,7.36651000,-0.04161540
8.20571449,-7.16658400,-45.27559000,7.70484700,-0.04001600
8.28571450,-8.50455100,-41.07714000,7.96628900,-0.03844734
8.36571450,-9.73486600,-37.23240000,8.12007800,-0.03703248
8.44571450,-10.91905000,-33.86442000,8.21235200,-0.03583292
8.52571450,-12.08784000,-31.06545000,8.24311000,-0.03487943
8.60571450,-13.25664000,-28.77399000,8.21235200,-0.03423351
8.68571450,-14.41006000,-26.72859000,8.13545700,-0.03367987
8.76571450,-15.56348000,-24.60630000,8.05856200,-0.03312623
8.84571450,-16.71690000,-22.29946000,7.96628900,-0.03257259
8.92571450,-17.87033000,-19.77731000,7.88939400,-0.03204970
9.00571451,-19.03912000,-17.07062000,7.84325700,-0.03155758
9.08571451,-20.17716000,-14.30241000,7.84325700,-0.03121924
9.16571451,-21.28445000,-11.56496000,7.88939400,-0.03103469
9.24571451,-22.33022000,-8.98129900,7.96628900,-0.03103469
9.32571451,-23.29909000,-6.59756400,8.05856200,-0.03121924
9.40571451,-24.14493000,-4.42913300,8.13545700,-0.03149606
9.48571451,-24.89850000,-2.38373500,8.21235200,-0.03174213
9.56571451,-25.55979000,-0.30757870,8.22773100,-0.03192667
9.64571451,-26.14419000,1.84547200,8.21235200,-0.03192667
9.72571451,-26.68245000,4.15231300,8.12007800,-0.03180364
9.80571452,-27.20534000,6.58218500,7.95091000,-0.03155758
9.88571452,-27.71284000,9.13508800,7.72022600,-0.03118848
9.96571452,-28.25111000,11.74951000,7.41264700,-0.03081939
10.04571452,-28.77399000,14.37930000,7.04355200,-0.03041954
10.12571452,-29.28149000,16.93221000,6.62832200,-0.02998893
10.20571452,-29.69673000,19.36208000,6.16695300,-0.02955832
10.28571452,-29.95817000,21.60740000,5.69020700,-0.02900467
10.36571452,-30.00430000,23.60667000,5.21345900,-0.02826649
10.44571452,-29.72748000,25.26759000,4.76747000,-0.02725148
10.52571453,-29.11233000,26.51329000,4.36761800,-0.02599040
10.60571453,-28.09732000,27.26685000,4.04466000,-0.02442175
10.68571453,-26.71321000,27.51292000,3.81397600,-0.02260704
10.76571453,-24.97539000,27.26685000,3.66018700,-0.02054626
10.84571453,-22.94537000,26.54404000,3.59867100,-0.01833169
10.92571453,-20.65391000,25.39062000,3.59867100,-0.01602485
11.00571453,-18.17790000,23.89887000,3.64480800,-0.01362574
11.08571453,-15.59424000,22.11491000,3.72170300,-0.01116511
11.16571453,-12.93369000,20.13103000,3.78321800,-0.00867372
11.24571453,-10.24237000,17.93184000,3.84473400,-0.00612082
11.32571454,-7.61257400,15.56348000,3.89087100,-0.00359867
