Time,Channel A,Channel B,Channel C,Channel D
(ns),(mV),(mV),(mV),(V)

-15.28727283,-0.13841040,3.76783900,3.78321800,0.00006152
-15.20727282,-0.49212600,3.29109200,3.44488200,0.00046137
-15.12727282,-0.93811510,2.59904000,3.01427100,0.00116880
-15.04727282,-1.43024100,1.75319900,2.50676700,0.00218381
-14.96727282,-1.96850400,0.78432570,1.98388300,0.00335261
-14.88727282,-2.52214600,-0.24606300,1.43024100,0.00455217
-14.80727282,-3.02965000,-1.24569400,0.92273620,0.00572097
-14.72727282,-3.44488200,-2.18380900,0.49212600,0.00670522
-14.64727282,-3.75246000,-2.99889300,0.18454720,0.00741265
-14.56727282,-3.90625000,-3.66018700,0.01537894,0.00778174
-14.48727281,-3.89087100,-4.13693400,0.01537894,0.00778174
-14.40727281,-3.70632400,-4.45989200,0.18454720,0.00741265
-14.32727281,-3.35260800,-4.61368100,0.49212600,0.00670522
-14.24727281,-2.86048200,-4.62906000,0.92273620,0.00572097
-14.16727281,-2.27608300,-4.56754400,1.43024100,0.00455217
-14.08727281,-1.67630400,-4.42913300,1.98388300,0.00335261
-14.00727281,-1.09190400,-4.27534400,2.50676700,0.00218381
-13.92727281,-0.58439960,-4.12155500,3.01427100,0.00116880
-13.84727281,-0.21530510,-4.01390200,3.44488200,0.00046137
-13.76727280,-0.03075787,-3.93700800,3.78321800,0.00006152
-13.68727280,-0.03075787,-3.90625000,4.02928100,0.00003076
-13.60727280,-0.21530510,-3.90625000,4.19845000,0.00033834
-13.52727280,-0.58439960,-3.92162900,4.27534400,0.00098425
-13.44727280,-1.09190400,-3.93700800,4.29072300,0.00184547
-13.36727280,-1.67630400,-3.95238700,4.25996500,0.00286048
-13.28727280,-2.27608300,-3.95238700,4.18307100,0.00396777
-13.20727280,-2.86048200,-3.95238700,4.10617600,0.00501353
-13.12727280,-3.35260800,-3.93700800,4.02928100,0.00602854
-13.04727280,-3.70632400,-3.92162900,3.96776600,0.00688976
-12.96727279,-3.89087100,-3.92162900,3.93700800,0.00756644
-12.88727279,-3.90625000,-3.92162900,3.92162900,0.00805856
-12.80727279,-3.75246000,-3.92162900,3.92162900,0.00839690
-12.72727279,-3.44488200,-3.93700800,3.93700800,0.00855069
-12.64727279,-3.02965000,-3.95238700,3.93700800,0.00858145
-12.56727279,-2.52214600,-3.95238700,3.95238700,0.00851993
-12.48727279,-1.96850400,-3.95238700,3.95238700,0.00836614
-12.40727279,-1.43024100,-3.95238700,3.95238700,0.00821235
-12.32727279,-0.92273620,-3.93700800,3.93700800,0.00805856
-12.24727278,-0.47674700,-3.92162900,3.93700800,0.00793553
-12.16727278,-0.13841040,-3.92162900,3.92162900,0.00787402
-12.08727278,0.10765260,-3.92162900,3.90625000,0.00784326
-12.00727278,0.23068400,-3.92162900,3.89087100,0.00784326
-11.92727278,0.24606300,-3.93700800,3.84473400,0.00787402
-11.84727278,0.18454720,-3.95238700,3.78321800,0.00787402
-11.76727278,0.06151574,-3.95238700,3.72170300,0.00790477
-11.68727278,-0.06151574,-3.95238700,3.64480800,0.00790477
-11.60727278,-0.18454720,-3.93700800,3.59867100,0.00790477
-11.52727277,-0.24606300,-3.93700800,3.59867100,0.00787402
-11.44727277,-0.23068400,-3.92162900,3.66018700,0.00784326
-11.36727277,-0.10765260,-3.92162900,3.81397600,0.00784326
-11.28727277,0.13841040,-3.93700800,4.04466000,0.00784326
-11.20727277,0.47674700,-3.96776600,4.36761800,0.00784326
-11.12727277,0.92273620,-4.02928100,4.76747000,0.00787402
-11.04727277,1.43024100,-4.10617600,5.21345900,0.00790477
-10.96727277,1.96850400,-4.18307100,5.69020700,0.00790477
-10.88727277,2.52214600,-4.25996500,6.16695300,0.00790477
-10.80727277,3.01427100,-4.29072300,6.61294300,0.00790477
-10.72727276,3.42950300,-4.27534400,7.04355200,0.00787402
-10.64727276,3.73708200,-4.18307100,7.39726800,0.00784326
-10.56727276,3.89087100,-4.02928100,7.70484700,0.00784326
-10.48727276,3.90625000,-3.79859700,7.96628900,0.00784326
-10.40727276,3.78321800,-3.49101900,8.16621500,0.00784326
-10.32727276,3.53715500,-3.10654500,8.30462600,0.00787402
-10.24727276,3.18344000,-2.67593500,8.39689900,0.00790477
-10.16727276,2.75283000,-2.21456700,8.44303500,0.00790477
-10.08727276,2.27608300,-1.73782000,8.44303500,0.00790477
-10.00727275,1.78395700,-1.26107300,8.39689900,0.00787402
-9.92727275,1.26107300,-0.83046260,8.30462600,0.00787402
-9.84727275,0.75356790,-0.44598910,8.16621500,0.00784326
-9.76727275,0.24606300,-0.12303150,7.96628900,0.00784326
-9.68727275,-0.24606300,0.10765260,7.70484700,0.00787402
-9.60727275,-0.75356790,0.26144190,7.39726800,0.00793553
-9.52727275,-1.26107300,0.33833660,7.04355200,0.00805856
-9.44727275,-1.78395700,0.33833660,6.61294300,0.00821235
-9.36727275,-2.27608300,0.30757870,6.16695300,0.00836614
-9.28727274,-2.75283000,0.23068400,5.69020700,0.00851993
-9.20727274,-3.18344000,0.16916830,5.21345900,0.00858145
-9.12727274,-3.53715500,0.10765260,4.76747000,0.00855069
-9.04727274,-3.79859700,0.04613681,4.36761800,0.00839690
-8.96727274,-3.92162900,0.01537894,4.04466000,0.00805856
-8.88727274,-3.89087100,-0.01537894,3.81397600,0.00756644
-8.80727274,-3.69094500,-0.04613681,3.66018700,0.00688976
-8.72727274,-3.33722900,-0.10765260,3.59867100,0.00602854
-8.64727274,-2.86048200,-0.16916830,3.59867100,0.00501353
-8.56727274,-2.27608300,-0.23068400,3.64480800,0.00396777
-8.48727273,-1.67630400,-0.30757870,3.72170300,0.00286048
-8.40727273,-1.09190400,-0.35371550,3.78321800,0.00184547
-8.32727273,-0.58439960,-0.33833660,3.84473400,0.00098425
-8.24727273,-0.23068400,-0.27682080,3.89087100,0.00036909
-8.16727273,-0.03075787,-0.10765260,3.92162900,0.00003076
-8.08727273,-0.01537894,0.13841040,3.92162900,0.00003076
-8.00727273,-0.16916830,0.49212600,3.89087100,0.00036909
-7.92727273,-0.49212600,0.92273620,3.84473400,0.00098425
-7.84727273,-0.92273620,1.43024100,3.78321800,0.00184547
-7.76727272,-1.43024100,1.96850400,3.72170300,0.00286048
-7.68727272,-1.98388300,2.52214600,3.64480800,0.00396777
-7.60727272,-2.50676700,3.01427100,3.59867100,0.00501353
-7.52727272,-3.01427100,3.44488200,3.59867100,0.00599779
-7.44727272,-3.44488200,3.73708200,3.66018700,0.00685901
-7.36727272,-3.78321800,3.90625000,3.81397600,0.00756644
-7.28727272,-4.02928100,3.90625000,4.06003900,0.00808932
-7.20727272,-4.19845000,3.73708200,4.41375400,0.00848917
-7.12727272,-4.27534400,3.44488200,4.85974400,0.00873524
-7.04727272,-4.29072300,3.01427100,5.38262700,0.00891978
-6.96727271,-4.25996500,2.52214600,5.92089000,0.00898130
-6.88727271,-4.18307100,1.96850400,6.47453200,0.00898130
-6.80727271,-4.10617600,1.43024100,6.96665800,0.00891978
-6.72727271,-4.01390200,0.92273620,7.38188900,0.00873524
-6.64727271,-3.95238700,0.49212600,7.67408900,0.00848917
-6.56727271,-3.92162900,0.13841040,7.82787800,0.00808932
-6.48727271,-3.93700800,-0.10765260,7.81250000,0.00756644
-6.40727271,-3.99852300,-0.27682080,7.62795300,0.00685901
-6.32727271,-4.12155500,-0.33833660,7.28961600,0.00599779
-6.24727270,-4.27534400,-0.35371550,6.79749000,0.00501353
-6.16727270,-4.42913300,-0.30757870,6.22846900,0.00396777
-6.08727270,-4.56754400,-0.23068400,5.62869100,0.00286048
-6.00727270,-4.62906000,-0.16916830,5.02891200,0.00184547
-5.92727270,-4.61368100,-0.10765260,4.52140800,0.00098425
-5.84727270,-4.45989200,-0.04613681,4.15231300,0.00036909
-5.76727270,-4.13693400,-0.01537894,3.95238700,0.00003076
-5.68727270,-3.66018700,0.01537894,3.95238700,0.00003076
-5.60727270,-2.99889300,0.04613681,4.15231300,0.00036909
-5.52727269,-2.18380900,0.10765260,4.52140800,0.00098425
-5.44727269,-1.24569400,0.16916830,5.02891200,0.00184547
-5.36727269,-0.24606300,0.23068400,5.62869100,0.00286048
-5.28727269,0.78432570,0.30757870,6.22846900,0.00396777
-5.20727269,1.75319900,0.33833660,6.79749000,0.00501353
-5.12727269,2.61441900,0.33833660,7.28961600,0.00602854
-5.04727269,3.30647100,0.26144190,7.62795300,0.00688976
-4.96727269,3.76783900,0.10765260,7.81250000,0.00756644
-4.88727269,4.01390200,-0.12303150,7.82787800,0.00805856
-4.80727269,3.99852300,-0.44598910,7.67408900,0.00839690
-4.72727268,3.78321800,-0.83046260,7.38188900,0.00855069
-4.64727268,3.36798700,-1.26107300,6.96665800,0.00858145
-4.56727268,2.82972400,-1.73782000,6.47453200,0.00851993
-4.48727268,2.21456700,-2.21456700,5.92089000,0.00836614
-4.40727268,1.58403000,-2.67593500,5.38262700,0.00821235
-4.32727268,1.01501000,-3.10654500,4.85974400,0.00805856
-4.24727268,0.52288380,-3.49101900,4.41375400,0.00793553
-4.16727268,0.13841040,-3.79859700,4.06003900,0.00787402
-4.08727268,-0.10765260,-4.02928100,3.81397600,0.00784326
-4.00727267,-0.23068400,-4.18307100,3.66018700,0.00784326
-3.92727267,-0.24606300,-4.27534400,3.59867100,0.00787402
-3.84727267,-0.18454720,-4.29072300,3.59867100,0.00787402
-3.76727267,-0.06151574,-4.25996500,3.64480800,0.00790477
-3.68727267,0.06151574,-4.18307100,3.72170300,0.00790477
-3.60727267,0.18454720,-4.10617600,3.78321800,0.00790477
-3.52727267,0.24606300,-4.02928100,3.84473400,0.00787402
-3.44727267,0.21530510,-3.96776600,3.89087100,0.00787402
-3.36727267,0.09227362,-3.92162900,3.90625000,0.00784326
-3.28727266,-0.12303150,-3.92162900,3.92162900,0.00781250
-3.20727266,-0.43061020,-3.96776600,3.93700800,0.00778174
-3.12727266,-0.83046260,-4.02928100,3.93700800,0.00768947
-3.04727266,-1.26107300,-4.10617600,3.95238700,0.00756644
-2.96727266,-1.73782000,-4.18307100,3.95238700,0.00744341
-2.88727266,-2.21456700,-4.25996500,3.95238700,0.00728962
-2.80727266,-2.67593500,-4.29072300,3.95238700,0.00719734
-2.72727266,-3.10654500,-4.27534400,3.93700800,0.00716658
-2.64727266,-3.47564000,-4.19845000,3.92162900,0.00728962
-2.56727266,-3.78321800,-4.02928100,3.92162900,0.00759720
-2.48727265,-4.04466000,-3.78321800,3.92162900,0.00815084
-2.40727265,-4.22920700,-3.44488200,3.92162900,0.00891978
-2.32727265,-4.36761800,-3.01427100,3.93700800,0.00990404
-2.24727265,-4.44451300,-2.50676700,3.95238700,0.01107283
-2.16727265,-4.49065000,-1.98388300,3.95238700,0.01233391
-2.08727265,-4.49065000,-1.43024100,3.95238700,0.01356422
-2.00727265,-4.44451300,-0.92273620,3.95238700,0.01464075
-1.92727265,-4.36761800,-0.49212600,3.95238700,0.01544045
-1.84727265,-4.22920700,-0.18454720,3.95238700,0.01587106
-1.76727264,-4.04466000,-0.01537894,3.93700800,0.01587106
-1.68727264,-3.78321800,-0.01537894,3.89087100,0.01537894
-1.60727264,-3.47564000,-0.18454720,3.79859700,0.01436393
-1.52727264,-3.10654500,-0.49212600,3.64480800,0.01291831
-1.44727264,-2.67593500,-0.92273620,3.46026100,0.01107283
-1.36727264,-2.21456700,-1.43024100,3.24495600,0.00898130
-1.28727264,-1.73782000,-1.98388300,3.04502900,0.00682825
-1.20727264,-1.26107300,-2.50676700,3.01427100,0.00470596
-1.12727264,-0.83046260,-3.01427100,3.27571300,0.00282972
-1.04727263,-0.44598910,-3.44488200,3.67556500,0.00135335
-0.96727263,-0.12303150,-3.78321800,3.93700800,0.00030758
-0.88727263,0.10765260,-4.02928100,3.76783900,-0.00018455
-0.80727263,0.26144190,-4.19845000,2.89124000,-0.00018455
-0.72727263,0.33833660,-4.27534400,1.19955700,0.00030758
-0.64727263,0.33833660,-4.29072300,-1.18417800,0.00116880
-0.56727263,0.30757870,-4.25996500,-3.86011300,0.00224533
-0.48727263,0.23068400,-4.18307100,-6.13619500,0.00347564
-0.40727263,0.15378940,-4.10617600,-7.01279500,0.00470596
-0.32727263,0.06151574,-4.02928100,-5.33649100,0.00584400
-0.24727262,0.00000000,-3.96776600,-0.16916830,0.00679749
-0.16727262,-0.01537894,-3.92162900,9.24274100,0.00753568
-0.08727262,0.04613681,-3.92162900,23.29909000,0.00808932
-0.00727262,0.19992620,-3.96776600,41.93836000,0.00842766
0.07272738,0.46136810,-4.02928100,64.60691000,0.00858145
0.15272738,0.81508360,-4.10617600,90.32050000,0.00858145
0.23272738,1.18417800,-4.18307100,117.75650000,0.00851993
0.31272738,1.52251500,-4.25996500,145.30020000,0.00836614
0.39272738,1.64554600,-4.29072300,171.35210000,0.00821235
0.47272739,1.44562000,-4.27534400,194.35900000,0.00805856
0.55272739,0.95349410,-4.18307100,213.10590000,0.00793553
0.63272739,0.30757870,-4.02928100,226.70090000,0.00787402
0.71272739,-0.27682080,-3.79859700,234.72870000,0.00784326
0.79272739,-0.63053640,-3.49101900,237.25090000,0.00784326
0.87272739,-0.63053640,-3.10654500,234.71330000,0.00787402
0.95272739,-0.33833660,-2.67593500,227.88510000,0.00787402
1.03272739,0.07689468,-2.21456700,217.75040000,0.00790477
1.11272739,0.18454720,-1.73782000,205.30880000,0.00790477
1.19272739,-0.76894680,-1.29183100,191.49850000,0.00787402
1.27272740,-3.50639700,-0.87659940,177.05770000,0.00778174
1.35272740,-8.36614100,-0.52288380,162.54000000,0.00775098
1.43272740,-15.36356000,-0.18454720,148.23760000,0.00778174
1.51272740,-24.29872000,0.18454720,134.25810000,0.00796629
1.59272740,-34.75639000,0.59977850,120.52470000,0.00836614
1.67272740,-46.29060000,1.09190400,106.89900000,0.00901206
1.75272740,-58.48609000,1.64554600,93.27325000,0.00984252
1.83272740,-71.14296000,2.19918800,79.58599000,0.01073450
1.91272740,-84.30733000,2.67593500,65.89874000,0.01156496
1.99272741,-98.60974000,2.82972400,52.39603000,0.01187254
2.07272741,-114.72690000,2.47600900,39.40084000,0.01138041
2.15272741,-133.02780000,1.66092500,27.32837000,0.01021161
2.23272741,-153.60480000,0.56902060,16.56311000,0.00864296
2.31272741,-176.38100000,-0.55364170,7.41264700,0.00710507
2.39272741,-200.94120000,-1.49175700,0.07689468,0.00596703
2.47272741,-226.74700000,-2.09153500,-5.39800600,0.00550566
2.55272741,-253.07580000,-2.35297700,-9.18122500,0.00565945
2.63272741,-279.23540000,-2.53752400,-11.53420000,0.00599779
2.71272742,-304.65670000,-3.10654500,-12.97982000,0.00565945
2.79272742,-329.09380000,-4.98277500,-13.97945000,0.00316806
2.87272742,-352.43910000,-9.07357200,-14.73302000,-0.00307579
2.95272742,-374.38480000,-15.84030000,-15.31742000,-0.01387180
3.03272742,-394.62350000,-25.49828000,-15.65576000,-0.02955832
3.11272742,-412.86290000,-37.90908000,-15.60962000,-0.05001230
3.19272742,-428.84160000,-52.68823000,-15.04060000,-0.07458784
3.27272742,-442.34430000,-69.28211000,-13.82566000,-0.10239300
3.35272742,-453.26340000,-87.09091000,-11.94943000,-0.13241260
3.43272742,-461.56800000,-105.63790000,-9.48880400,-0.16372420
3.51272743,-467.38120000,-124.58480000,-6.70521600,-0.19577390
3.59272743,-471.01070000,-144.11600000,-3.87549200,-0.22862330
3.67272743,-472.84080000,-164.53920000,-1.21493600,-0.26258000
3.75272743,-473.08680000,-185.90060000,1.13804100,-0.29782850
3.83272743,-471.85650000,-208.20000000,3.10654500,-0.33430730
3.91272743,-469.14980000,-231.26840000,4.62906000,-0.37198570
3.99272743,-464.88990000,-254.82900000,5.73634300,-0.41046380
4.07272743,-458.95360000,-278.48180000,6.48991100,-0.44921880
4.15272743,-451.26410000,-301.70400000,6.95127900,-0.48742000
4.23272744,-441.74460000,-324.00340000,7.21272100,-0.52411420
4.31272744,-430.36410000,-344.91880000,7.35113100,-0.55831690
4.39272744,-417.30740000,-364.21940000,7.42802600,-0.58910550
4.47272744,-402.98960000,-381.72060000,7.50492100,-0.61574180
4.55272744,-387.90290000,-397.14560000,7.61257400,-0.63733390
4.63272744,-372.47780000,-410.20240000,7.76636300,-0.65326650
4.71272744,-357.14500000,-420.67540000,7.93553100,-0.66310900
4.79272744,-342.10440000,-428.39560000,8.10469900,-0.66673850
4.87272744,-327.47910000,-433.27080000,8.27386800,-0.66427780
4.95272745,-313.14590000,-435.33150000,8.38152000,-0.65618850
5.03272745,-298.90500000,-434.68560000,8.44303500,-0.64311640
5.11272745,-284.23350000,-431.56370000,8.44303500,-0.62583050
5.19272745,-268.77760000,-426.31950000,8.39689900,-0.60522270
5.27272745,-252.64520000,-419.35280000,8.30462600,-0.58215430
5.35272745,-236.15890000,-410.97130000,8.16621500,-0.55730190
5.43272745,-219.79570000,-401.37480000,7.96628900,-0.53118850
5.51272745,-204.03230000,-390.68650000,7.70484700,-0.50409080
5.59272745,-189.29930000,-378.95240000,7.39726800,-0.47613190
5.67272745,-175.81200000,-366.14170000,7.04355200,-0.44734250
5.75272746,-163.60110000,-352.22380000,6.61294300,-0.41766120
5.83272746,-152.42060000,-337.21390000,6.16695300,-0.38718010
5.91272746,-141.62460000,-321.06610000,5.69020700,-0.35583790
5.99272746,-130.62870000,-303.91850000,5.21345900,-0.32388040
6.07272746,-119.26360000,-286.24810000,4.76747000,-0.29210750
6.15272746,-107.63720000,-268.56230000,4.38299700,-0.26147270
6.23272746,-95.96456000,-251.41490000,4.06003900,-0.23289860
6.31272746,-84.58415000,-235.26700000,3.79859700,-0.20724660
6.39272746,-73.83427000,-220.42630000,3.62942900,-0.18503940
6.47272747,-63.97637000,-206.96970000,3.50639700,-0.16643090
6.55272747,-55.10273000,-194.78960000,3.44488200,-0.15111340
6.63272747,-47.18258000,-183.56300000,3.41412400,-0.13847190
6.71272747,-39.87758000,-172.62860000,3.41412400,-0.12727610
6.79272747,-32.86478000,-161.49420000,3.42950300,-0.11638780
6.87272747,-26.15957000,-150.06770000,3.50639700,-0.10543800
6.95272747,-19.88497000,-138.51810000,3.61405000,-0.09442667
7.03272747,-14.25627000,-127.12230000,3.79859700,-0.08363066
7.11272747,-9.51956200,-116.24940000,4.06003900,-0.07348056
7.19272748,-5.85937500,-106.23770000,4.42913300,-0.06449926
7.27272748,-3.35260800,-97.31791000,4.87512300,-0.05699434
7.35272748,-1.98388300,-89.52078000,5.38262700,-0.05111958
7.43272748,-1.58403000,-82.75406000,5.92089000,-0.04675197
7.51272748,-1.78395700,-76.54096000,6.47453200,-0.04333784
7.59272748,-2.21456700,-70.45090000,6.96665800,-0.04026206
7.67272748,-2.70669300,-64.46850000,7.38188900,-0.03737082
7.75272748,-3.19881900,-58.70140000,7.67408900,-0.03469488
7.83272748,-3.67556500,-53.39567000,7.82787800,-0.03235728
7.91272748,-4.18307100,-48.81274000,7.81250000,-0.03054257
7.99272749,-4.79822800,-45.19869000,7.62795300,-0.02943528
8.07272749,-5.59793300,-42.67655000,7.28961600,-0.02915846
8.15272749,-6.61294300,-41.21555000,6.79749000,-0.02971211
8.23272749,-7.84325700,-40.60039000,6.22846900,-0.03097318
8.31272749,-9.21198300,-40.38509000,5.62869100,-0.03260335
8.39272749,-10.62684000,-40.06213000,5.02891200,-0.03426427
8.47272749,-12.05709000,-39.33932000,4.52140800,-0.03586368
8.55272749,-13.51808000,-38.10900000,4.15231300,-0.03730930
8.63272749,-14.96371000,-36.35580000,3.95238700,-0.03860113
8.71272750,-16.40932000,-34.15662000,3.93700800,-0.03983145
8.79272750,-17.80881000,-31.68061000,4.10617600,-0.04106176
8.87272750,-19.16216000,-29.05081000,4.42913300,-0.04235359
8.95272750,-20.46936000,-26.42101000,4.87512300,-0.04367618
9.03272750,-21.69968000,-23.83735000,5.38262700,-0.04502953
9.11272750,-22.85310000,-21.25369000,5.93626900,-0.04625984
9.19272750,-23.94500000,-18.53162000,6.45915300,-0.04718258
9.27272750,-24.99077000,-15.65576000,6.93590000,-0.04776698
9.35272750,-25.99040000,-12.62611000,7.35113100,-0.04789001
9.43272751,-26.97465000,-9.45804600,7.70484700,-0.04745940
9.51272751,-27.92815000,-6.21309000,7.96628900,-0.04653666
9.59272751,-28.86626000,-2.92199800,8.16621500,-0.04506028
9.67272751,-29.75824000,0.35371550,8.30462600,-0.04309178
9.75272751,-30.55795000,3.55253400,8.39689900,-0.04075418
9.83272751,-31.26538000,6.62832200,8.44303500,-0.03807825
9.91272751,-31.80364000,9.55032000,8.44303500,-0.03521777
9.99272751,-32.14198000,12.31853000,8.39689900,-0.03229577
10.07272751,-32.24963000,14.82529000,8.30462600,-0.02943528
10.15272751,-32.09584000,17.03986000,8.16621500,-0.02679011
10.23272752,-31.68061000,18.85458000,7.96628900,-0.02451403
10.31272752,-31.01931000,20.25406000,7.70484700,-0.02266855
10.39272752,-30.14272000,21.20755000,7.39726800,-0.02134596
10.47272752,-29.05081000,21.73044000,7.04355200,-0.02051550
10.55272752,-27.80512000,21.82271000,6.61294300,-0.02005413
10.63272752,-26.39025000,21.57665000,6.16695300,-0.01983883
10.71272752,-24.82160000,21.02301000,5.69020700,-0.01968504
10.79272752,-23.08378000,20.23868000,5.21345900,-0.01940822
10.87272752,-21.14604000,19.20829000,4.76747000,-0.01882382
10.95272753,-19.05450000,17.96260000,4.36761800,-0.01790108
11.03272753,-16.83994000,16.50160000,4.04466000,-0.01651698
11.11272753,-14.53309000,14.82529000,3.81397600,-0.01476378
11.19272753,-12.16474000,12.97982000,3.66018700,-0.01267224
11.27272753,-9.79638200,10.94980000,3.59867100,-0.01033465
11.35272753,-7.44340500,8.78137200,3.59867100,-0.00781250
11.43272753,-5.10580700,6.50529000,3.64480800,-0.00525960
11.51272753,-2.79896600,4.10617600,3.72170300,-0.00264518
11.59272753,-0.44598910,1.63016700,3.78321800,-0.00009227
11.67272753,1.92236700,-0.96887300,3.84473400,0.00239911
