Time,Channel A,Channel B,Channel C,Channel D
(ns),(mV),(mV),(mV),(V)

-15.67999983,0.01537894,-4.04466000,7.95091000,0.00784326
-15.59999982,0.04613681,-4.36761800,7.98166800,0.00784326
-15.51999982,0.09227362,-4.76747000,7.81250000,0.00787402
-15.43999982,0.16916830,-5.21345900,7.47416300,0.00790477
-15.35999982,0.23068400,-5.69020700,7.01279500,0.00790477
-15.27999982,0.30757870,-6.16695300,6.47453200,0.00790477
-15.19999982,0.35371550,-6.61294300,5.89013200,0.00787402
-15.11999982,0.33833660,-7.04355200,5.29035400,0.00787402
-15.03999982,0.27682080,-7.39726800,4.72133400,0.00784326
-14.95999982,0.10765260,-7.70484700,4.18307100,0.00784326
-14.87999981,-0.13841040,-7.96628900,3.67556500,0.00787402
-14.79999981,-0.49212600,-8.16621500,3.19881900,0.00793553
-14.71999981,-0.92273620,-8.30462600,2.75283000,0.00805856
-14.63999981,-1.43024100,-8.39689900,2.32221900,0.00821235
-14.55999981,-1.96850400,-8.44303500,1.90698800,0.00836614
-14.47999981,-2.52214600,-8.44303500,1.50713600,0.00851993
-14.39999981,-3.01427100,-8.39689900,1.10728300,0.00858145
-14.31999981,-3.44488200,-8.30462600,0.73818890,0.00855069
-14.23999981,-3.73708200,-8.16621500,0.39985230,0.00839690
-14.15999980,-3.90625000,-7.96628900,0.12303150,0.00805856
-14.07999980,-3.90625000,-7.70484700,-0.10765260,0.00756644
-13.99999980,-3.73708200,-7.39726800,-0.24606300,0.00688976
-13.91999980,-3.44488200,-7.04355200,-0.32295760,0.00602854
-13.83999980,-3.01427100,-6.61294300,-0.33833660,0.00501353
-13.75999980,-2.52214600,-6.16695300,-0.30757870,0.00396777
-13.67999980,-1.96850400,-5.69020700,-0.23068400,0.00286048
-13.59999980,-1.43024100,-5.21345900,-0.15378940,0.00184547
-13.51999980,-0.92273620,-4.75209100,-0.09227362,0.00098425
-13.43999980,-0.49212600,-4.35223900,-0.03075787,0.00036909
-13.35999979,-0.13841040,-4.04466000,0.00000000,0.00003076
-13.27999979,0.10765260,-3.82935500,0.00000000,0.00003076
-13.19999979,0.27682080,-3.75246000,-0.03075787,0.00036909
-13.11999979,0.33833660,-3.78321800,-0.09227362,0.00098425
-13.03999979,0.35371550,-3.92162900,-0.15378940,0.00184547
-12.95999979,0.30757870,-4.12155500,-0.23068400,0.00286048
-12.87999979,0.23068400,-4.32148100,-0.30757870,0.00396777
-12.79999979,0.16916830,-4.47527100,-0.33833660,0.00501353
-12.71999979,0.09227362,-4.52140800,-0.33833660,0.00602854
-12.63999978,0.04613681,-4.42913300,-0.26144190,0.00688976
-12.55999978,0.01537894,-4.13693400,-0.10765260,0.00756644
-12.47999978,0.00000000,-3.66018700,0.12303150,0.00805856
-12.39999978,-0.01537894,-2.96813500,0.44598910,0.00839690
-12.31999978,0.00000000,-2.09153500,0.83046260,0.00855069
-12.23999978,0.00000000,-1.09190400,1.26107300,0.00858145
-12.15999978,0.00000000,0.00000000,1.73782000,0.00851993
-12.07999978,0.00000000,1.09190400,2.21456700,0.00836614
-11.99999978,0.00000000,2.09153500,2.67593500,0.00821235
-11.91999977,0.00000000,2.95275600,3.10654500,0.00805856
-11.83999977,0.00000000,3.56791300,3.49101900,0.00793553
-11.75999977,0.00000000,3.89087100,3.79859700,0.00787402
-11.67999977,0.00000000,3.87549200,4.02928100,0.00784326
-11.59999977,0.00000000,3.52177600,4.18307100,0.00784326
-11.51999977,0.00000000,2.84510300,4.27534400,0.00787402
-11.43999977,0.00000000,1.93774600,4.29072300,0.00787402
-11.35999977,0.00000000,0.84584150,4.25996500,0.00790477
-11.27999977,0.00000000,-0.30757870,4.18307100,0.00790477
-11.19999977,0.00000000,-1.43024100,4.10617600,0.00787402
-11.11999976,0.00000000,-2.41449300,4.02928100,0.00787402
-11.03999976,0.00000000,-3.21419800,3.96776600,0.00784326
-10.95999976,0.00000000,-3.75246000,3.93700800,0.00784326
-10.87999976,0.00000000,-4.02928100,3.92162900,0.00787402
-10.79999976,0.00000000,-4.02928100,3.92162900,0.00793553
-10.71999976,0.00000000,-3.78321800,3.93700800,0.00805856
-10.63999976,0.00000000,-3.36798700,3.93700800,0.00821235
-10.55999976,0.00000000,-2.82972400,3.95238700,0.00836614
-10.47999976,0.00000000,-2.21456700,3.95238700,0.00851993
-10.39999975,0.00000000,-1.59940900,3.95238700,0.00858145
-10.31999975,0.00000000,-1.01501000,3.93700800,0.00855069
-10.23999975,0.00000000,-0.53826270,3.92162900,0.00836614
-10.15999975,0.00000000,-0.15378940,3.92162900,0.00805856
-10.07999975,0.00000000,0.12303150,3.92162900,0.00759720
-9.99999975,0.00000000,0.27682080,3.92162900,0.00698204
-9.91999975,0.00000000,0.35371550,3.93700800,0.00621309
-9.83999975,0.00000000,0.35371550,3.95238700,0.00535187
-9.75999975,0.00000000,0.30757870,3.95238700,0.00442913
-9.67999974,0.00000000,0.23068400,3.95238700,0.00347564
-9.59999974,0.00000000,0.15378940,3.95238700,0.00252215
-9.51999974,0.00000000,0.09227362,3.93700800,0.00166093
-9.43999974,0.00000000,0.03075787,3.92162900,0.00089198
-9.35999974,0.00000000,0.00000000,3.92162900,0.00024606
-9.27999974,0.00000000,0.00000000,3.92162900,-0.00021531
-9.19999974,0.00000000,0.03075787,3.92162900,-0.00052288
-9.11999974,0.00000000,0.09227362,3.93700800,-0.00067667
-9.03999974,0.00000000,0.15378940,3.95238700,-0.00067667
-8.95999974,0.00000000,0.23068400,3.95238700,-0.00061516
-8.87999973,0.00000000,0.30757870,3.95238700,-0.00046137
-8.79999973,0.00000000,0.35371550,3.93700800,-0.00030758
-8.71999973,0.00000000,0.33833660,3.93700800,-0.00018455
-8.63999973,0.00000000,0.27682080,3.92162900,-0.00006152
-8.55999973,0.00000000,0.10765260,3.92162900,0.00000000
-8.47999973,0.00000000,-0.13841040,3.93700800,0.00000000
-8.39999973,0.00000000,-0.49212600,3.96776600,-0.00006152
-8.31999973,0.00000000,-0.92273620,4.02928100,-0.00018455
-8.23999973,0.00000000,-1.43024100,4.10617600,-0.00030758
-8.15999972,0.00000000,-1.96850400,4.18307100,-0.00046137
-8.07999972,0.00000000,-2.52214600,4.25996500,-0.00061516
-7.99999972,0.00000000,-3.02965000,4.29072300,-0.00070743
-7.91999972,0.00000000,-3.44488200,4.27534400,-0.00067667
-7.83999972,0.00000000,-3.75246000,4.19845000,-0.00055364
-7.75999972,0.00000000,-3.90625000,4.02928100,-0.00021531
-7.67999972,0.00000000,-3.89087100,3.78321800,0.00027682
-7.59999972,0.00000000,-3.70632400,3.44488200,0.00098425
-7.51999972,0.00000000,-3.35260800,3.01427100,0.00184547
-7.43999972,0.00000000,-2.86048200,2.50676700,0.00286048
-7.35999971,0.00000000,-2.27608300,1.98388300,0.00393701
-7.27999971,0.00000000,-1.67630400,1.43024100,0.00504429
-7.19999971,0.00000000,-1.09190400,0.92273620,0.00605930
-7.11999971,0.00000000,-0.58439960,0.49212600,0.00688976
-7.03999971,-0.01537894,-0.23068400,0.18454720,0.00750492
-6.95999971,0.00000000,-0.03075787,0.01537894,0.00781250
-6.87999971,0.01537894,-0.01537894,0.01537894,0.00778174
-6.79999971,0.04613681,-0.16916830,0.18454720,0.00741265
-6.71999971,0.09227362,-0.49212600,0.49212600,0.00670522
-6.63999970,0.16916830,-0.92273620,0.92273620,0.00572097
-6.55999970,0.23068400,-1.43024100,1.43024100,0.00455217
-6.47999970,0.30757870,-1.98388300,1.98388300,0.00335261
-6.39999970,0.33833660,-2.50676700,2.50676700,0.00218381
-6.31999970,0.33833660,-3.01427100,3.01427100,0.00116880
-6.23999970,0.26144190,-3.44488200,3.44488200,0.00046137
-6.15999970,0.10765260,-3.78321800,3.78321800,0.00006152
-6.07999970,-0.12303150,-4.02928100,4.02928100,0.00003076
-5.99999970,-0.44598910,-4.19845000,4.19845000,0.00033834
-5.91999969,-0.83046260,-4.27534400,4.27534400,0.00098425
-5.83999969,-1.26107300,-4.29072300,4.29072300,0.00184547
-5.75999969,-1.73782000,-4.25996500,4.25996500,0.00286048
-5.67999969,-2.21456700,-4.18307100,4.18307100,0.00396777
-5.59999969,-2.67593500,-4.10617600,4.10617600,0.00501353
-5.51999969,-3.10654500,-4.02928100,4.04466000,0.00602854
-5.43999969,-3.47564000,-3.96776600,3.98314500,0.00688976
-5.35999969,-3.78321800,-3.92162900,3.93700800,0.00756644
-5.27999969,-4.04466000,-3.92162900,3.90625000,0.00805856
-5.19999969,-4.22920700,-3.96776600,3.87549200,0.00839690
-5.11999968,-4.36761800,-4.02928100,3.82935500,0.00855069
-5.03999968,-4.44451300,-4.10617600,3.78321800,0.00858145
-4.95999968,-4.49065000,-4.18307100,3.72170300,0.00851993
-4.87999968,-4.49065000,-4.25996500,3.64480800,0.00836614
-4.79999968,-4.45989200,-4.29072300,3.59867100,0.00821235
-4.71999968,-4.36761800,-4.27534400,3.59867100,0.00805856
-4.63999968,-4.24458600,-4.18307100,3.66018700,0.00793553
-4.55999968,-4.04466000,-4.02928100,3.81397600,0.00787402
-4.47999968,-3.78321800,-3.79859700,4.06003900,0.00784326
-4.39999967,-3.42950300,-3.49101900,4.41375400,0.00784326
-4.31999967,-2.99889300,-3.10654500,4.85974400,0.00787402
-4.23999967,-2.50676700,-2.67593500,5.38262700,0.00787402
-4.15999967,-1.98388300,-2.21456700,5.92089000,0.00790477
-4.07999967,-1.43024100,-1.73782000,6.47453200,0.00790477
-3.99999967,-0.92273620,-1.26107300,6.96665800,0.00790477
-3.91999967,-0.49212600,-0.83046260,7.38188900,0.00787402
-3.83999967,-0.16916830,-0.44598910,7.67408900,0.00784326
-3.75999967,-0.01537894,-0.12303150,7.82787800,0.00784326
-3.67999966,-0.03075787,0.10765260,7.82787800,0.00784326
-3.59999966,-0.23068400,0.26144190,7.67408900,0.00784326
-3.51999966,-0.58439960,0.33833660,7.38188900,0.00787402
-3.43999966,-1.09190400,0.33833660,6.96665800,0.00790477
-3.35999966,-1.67630400,0.30757870,6.47453200,0.00790477
-3.27999966,-2.27608300,0.23068400,5.92089000,0.00790477
-3.19999966,-2.86048200,0.16916830,5.38262700,0.00790477
-3.11999966,-3.35260800,0.09227362,4.85974400,0.00787402
-3.03999966,-3.70632400,0.04613681,4.41375400,0.00784326
-2.95999966,-3.89087100,0.01537894,4.06003900,0.00784326
-2.87999965,-3.90625000,0.00000000,3.81397600,0.00784326
-2.79999965,-3.75246000,-0.01537894,3.66018700,0.00784326
-2.71999965,-3.44488200,0.00000000,3.59867100,0.00787402
-2.63999965,-3.02965000,0.00000000,3.59867100,0.00790477
-2.55999965,-2.52214600,0.00000000,3.64480800,0.00790477
-2.47999965,-1.96850400,0.00000000,3.72170300,0.00790477
-2.39999965,-1.43024100,0.00000000,3.78321800,0.00790477
-2.31999965,-0.93811510,0.00000000,3.84473400,0.00787402
-2.23999965,-0.49212600,0.00000000,3.89087100,0.00784326
-2.15999964,-0.13841040,0.00000000,3.90625000,0.00784326
-2.07999964,0.12303150,0.00000000,3.92162900,0.00784326
-1.99999964,0.30757870,0.00000000,3.93700800,0.00784326
-1.91999964,0.43061020,0.00000000,3.93700800,0.00787402
-1.83999964,0.50750490,0.00000000,3.95238700,0.00790477
-1.75999964,0.53826270,0.00000000,3.95238700,0.00790477
-1.67999964,0.53826270,0.00000000,3.95238700,0.00790477
-1.59999964,0.50750490,0.00000000,3.96776600,0.00790477
-1.51999964,0.43061020,0.00000000,4.02928100,0.00787402
-1.43999963,0.30757870,-0.01537894,4.07541800,0.00784326
-1.35999963,0.12303150,0.00000000,4.01390200,0.00784326
-1.27999963,-0.13841040,0.01537894,3.76783900,0.00784326
-1.19999963,-0.49212600,0.04613681,3.27571300,0.00784326
-1.11999963,-0.93811510,0.09227362,2.50676700,0.00787402
-1.03999963,-1.43024100,0.16916830,1.50713600,0.00790477
-0.95999963,-1.96850400,0.23068400,0.39985230,0.00790477
-0.87999963,-2.52214600,0.30757870,-0.61515740,0.00790477
-0.79999963,-3.02965000,0.35371550,-1.09190400,0.00790477
-0.71999963,-3.44488200,0.33833660,-0.67667320,0.00787402
-0.63999962,-3.75246000,0.27682080,0.63053640,0.00784326
-0.55999962,-3.90625000,0.10765260,2.70669300,0.00784326
-0.47999962,-3.89087100,-0.13841040,5.21345900,0.00784326
-0.39999962,-3.70632400,-0.49212600,7.82787800,0.00784326
-0.31999962,-3.35260800,-0.92273620,10.31927000,0.00787402
-0.23999962,-2.86048200,-1.43024100,12.57997000,0.00790477
-0.15999962,-2.27608300,-1.96850400,14.87143000,0.00790477
-0.07999962,-1.67630400,-2.52214600,17.70115000,0.00790477
0.00000038,-1.10728300,-3.01427100,21.93036000,0.00790477
0.08000039,-0.66129420,-3.42950300,28.65096000,0.00787402
0.16000039,-0.33833660,-3.73708200,38.89333000,0.00784326
0.24000039,-0.10765260,-3.89087100,53.56483000,0.00784326
0.32000039,0.10765260,-3.90625000,73.23450000,0.00784326
0.40000039,0.33833660,-3.78321800,97.96382000,0.00784326
0.48000039,0.64591530,-3.53715500,127.22990000,0.00787402
0.56000039,1.03038900,-3.18344000,159.87940000,0.00790477
0.64000039,1.41486200,-2.75283000,194.17440000,0.00790477
0.72000039,1.67630400,-2.27608300,227.97740000,0.00790477
0.80000039,1.50713600,-1.78395700,258.87360000,0.00787402
0.88000040,0.66129420,-1.27645200,284.55650000,0.00787402
0.96000040,-0.83046260,-0.78432570,302.94960000,0.00784326
1.04000040,-2.82972400,-0.26144190,312.56150000,0.00784326
1.12000040,-5.04429100,0.27682080,312.59230000,0.00787402
1.20000040,-7.19734200,0.84584150,303.05730000,0.00793553
1.28000040,-9.11970900,1.46099900,284.75640000,0.00805856
1.36000040,-10.74988000,2.10691400,259.21200000,0.00821235
1.44000040,-12.31853000,2.75283000,228.43870000,0.00836614
1.52000040,-14.33317000,3.36798700,194.78960000,0.00851993
1.60000041,-17.73191000,3.84473400,160.55610000,0.00851993
1.68000041,-23.51439000,4.09079700,127.87590000,0.00836614
1.76000041,-32.18811000,4.13693400,98.45596000,0.00808932
1.84000041,-43.96838000,4.01390200,73.43443000,0.00787402
1.92000041,-58.71678000,3.81397600,53.33415000,0.00787402
2.00000041,-76.03346000,3.62942900,38.13976000,0.00827387
2.08000041,-95.27251000,3.49101900,27.28223000,0.00907357
2.16000041,-115.81880000,3.39874500,19.88497000,0.01021161
2.24000041,-137.04170000,3.30647100,14.93295000,0.01153420
2.32000042,-158.57220000,3.02965000,11.34966000,0.01261073
2.40000042,-180.56410000,2.16843000,8.27386800,0.01267224
2.48000042,-203.24800000,0.38447340,5.13656500,0.01110359
2.56000042,-226.63940000,-2.35297700,1.69168300,0.00775098
2.64000042,-250.63050000,-5.87475300,-2.03002000,0.00289124
2.72000042,-275.02150000,-9.90403500,-5.79785900,-0.00307579
2.80000042,-299.47400000,-14.14862000,-9.28887700,-0.00962722
2.88000042,-323.57280000,-18.31631000,-12.19550000,-0.01627092
2.96000042,-346.84110000,-22.34559000,-14.28703000,-0.02285310
3.04000042,-368.83300000,-26.35950000,-15.51735000,-0.02952756
3.12000043,-389.21010000,-30.81939000,-16.14788000,-0.03709400
3.20000043,-407.91090000,-36.64800000,-16.45546000,-0.04693652
3.28000043,-424.93540000,-44.82960000,-16.53236000,-0.06071604
3.36000043,-440.09900000,-55.90243000,-16.40932000,-0.07938607
3.44000043,-453.20190000,-70.14333000,-16.00947000,-0.10353100
3.52000043,-464.04400000,-87.49077000,-15.27128000,-0.13315080
3.60000043,-472.37940000,-107.52950000,-14.14862000,-0.16772270
3.68000043,-478.10040000,-129.67520000,-12.57997000,-0.20629310
3.76000043,-481.08390000,-153.15880000,-10.59609000,-0.24750860
3.84000044,-481.40680000,-177.27300000,-8.27386800,-0.28995450
3.92000044,-479.16150000,-201.38720000,-5.75172200,-0.33233880
4.00000044,-474.71700000,-225.33220000,-3.22957700,-0.37370820
4.08000044,-468.50390000,-249.03110000,-0.84584150,-0.41350890
4.16000044,-460.84520000,-272.29940000,1.30720900,-0.45103350
4.24000044,-451.98690000,-294.93720000,3.13730300,-0.48582060
4.32000044,-442.06750000,-316.71380000,4.61368100,-0.51750120
4.40000044,-431.14850000,-337.42920000,5.75172200,-0.54589070
4.48000044,-419.18370000,-356.79130000,6.55142700,-0.57083540
4.56000045,-406.12700000,-374.55400000,7.10506800,-0.59221210
4.64000045,-391.88600000,-390.45580000,7.44340500,-0.60992870
4.72000045,-376.33800000,-404.28150000,7.65871000,-0.62383120
4.80000045,-359.57490000,-416.01560000,7.78174200,-0.63385830
4.88000045,-341.99680000,-425.59670000,7.85863600,-0.63985600
4.96000045,-324.14180000,-432.91710000,7.88939400,-0.64157850
5.04000045,-306.59450000,-437.82290000,7.87401500,-0.63868730
5.12000045,-289.86220000,-440.14510000,7.79712100,-0.63096700
5.20000045,-274.31410000,-439.77610000,7.62795300,-0.61829480
5.28000045,-260.04240000,-436.70030000,7.35113100,-0.60082430
5.36000046,-246.90880000,-430.96390000,6.95127900,-0.57889400
5.44000046,-234.60570000,-422.72080000,6.47453200,-0.55311880
5.52000046,-222.39480000,-412.24770000,5.92089000,-0.52423720
5.60000046,-209.61490000,-399.91380000,5.38262700,-0.49329480
5.68000046,-196.15830000,-386.24200000,4.85974400,-0.46142960
5.76000046,-182.13270000,-371.70890000,4.41375400,-0.42974900
5.84000046,-167.89180000,-356.68370000,4.06003900,-0.39911420
5.92000046,-153.85090000,-341.47390000,3.81397600,-0.37017100
6.00000046,-140.40970000,-326.21800000,3.66018700,-0.34319640
6.08000047,-127.87590000,-310.93130000,3.59867100,-0.31819020
6.16000047,-116.37240000,-295.52160000,3.59867100,-0.29487570
6.24000047,-105.80710000,-279.88130000,3.64480800,-0.27273010
6.32000047,-95.70312000,-263.73340000,3.72170300,-0.25104580
6.40000047,-85.61453000,-246.93960000,3.78321800,-0.22926920
6.48000047,-75.47981000,-229.77670000,3.84473400,-0.20752340
6.56000047,-65.42200000,-212.69070000,3.89087100,-0.18630040
6.64000047,-55.65637000,-196.17370000,3.90625000,-0.16627710
6.72000047,-46.50590000,-180.68710000,3.92162900,-0.14806840
6.80000048,-38.20128000,-166.60000000,3.93700800,-0.13232040
6.88000048,-30.92704000,-154.06620000,3.93700800,-0.11924830
6.96000048,-24.74471000,-143.00870000,3.95238700,-0.10882140
7.04000048,-19.56201000,-133.15080000,3.95238700,-0.10063980
7.12000048,-15.05598000,-123.86200000,3.95238700,-0.09365772
7.20000048,-10.91905000,-114.57310000,3.95238700,-0.08692175
7.28000048,-7.13582600,-105.19190000,3.93700800,-0.08009350
7.36000048,-3.81397600,-95.81078000,3.93700800,-0.07311147
7.44000048,-1.07652500,-86.72182000,3.92162900,-0.06612943
7.52000048,0.86122040,-78.21727000,3.90625000,-0.05951649
7.60000049,1.87623000,-70.65083000,3.89087100,-0.05361097
7.68000049,1.87623000,-64.19168000,3.84473400,-0.04865896
7.76000049,0.93811510,-58.90133000,3.78321800,-0.04481422
7.84000049,-0.78432570,-54.64136000,3.72170300,-0.04201525
7.92000049,-2.95275600,-50.95042000,3.64480800,-0.03983145
8.00000049,-5.22883800,-47.36712000,3.59867100,-0.03780143
8.08000049,-7.42802600,-43.78383000,3.59867100,-0.03583292
8.16000049,-9.38115100,-40.23130000,3.66018700,-0.03392594
8.24000049,-11.05746000,-36.84793000,3.81397600,-0.03217274
8.32000050,-12.41080000,-33.87980000,4.06003900,-0.03069636
8.40000050,-13.48733000,-31.49606000,4.41375400,-0.02965059
8.48000050,-14.36393000,-29.85052000,4.85974400,-0.02915846
8.56000050,-15.10212000,-28.92778000,5.38262700,-0.02918922
8.64000050,-15.77879000,-28.60482000,5.92089000,-0.02965059
8.72000050,-16.39395000,-28.51255000,6.47453200,-0.03032726
8.80000050,-16.99372000,-28.28186000,6.96665800,-0.03094242
8.88000050,-17.63964000,-27.62057000,7.38188900,-0.03140379
8.96000050,-18.36245000,-26.42101000,7.67408900,-0.03158834
9.04000051,-19.17753000,-24.63705000,7.82787800,-0.03152682
9.12000051,-20.06951000,-22.31484000,7.82787800,-0.03118848
9.20000051,-21.02301000,-19.56201000,7.67408900,-0.03060408
9.28000051,-21.99188000,-16.51698000,7.38188900,-0.02989665
9.36000051,-22.94537000,-13.31816000,6.96665800,-0.02903543
9.44000051,-23.85273000,-10.08858000,6.47453200,-0.02814345
9.52000051,-24.66781000,-6.81286900,5.92089000,-0.02718996
9.60000051,-25.39062000,-3.50639700,5.38262700,-0.02620571
9.68000051,-26.05192000,-0.19992620,4.85974400,-0.02525221
9.76000051,-26.65170000,3.07578700,4.41375400,-0.02442175
9.84000052,-27.18996000,6.27460600,4.06003900,-0.02377584
9.92000052,-27.71284000,9.38115100,3.81397600,-0.02337598
10.00000052,-28.22035000,12.34929000,3.66018700,-0.02322219
10.08000052,-28.68172000,15.16363000,3.59867100,-0.02331447
10.16000052,-29.11233000,17.79343000,3.59867100,-0.02362205
10.24000052,-29.45066000,20.20792000,3.64480800,-0.02405266
10.32000052,-29.66597000,22.39173000,3.72170300,-0.02445251
10.40000052,-29.65059000,24.28334000,3.78321800,-0.02472933
10.48000052,-29.38915000,25.80585000,3.84473400,-0.02472933
10.56000053,-28.83550000,26.86700000,3.89087100,-0.02448327
10.64000053,-27.98966000,27.40526000,3.90625000,-0.02392963
10.72000053,-26.85162000,27.37451000,3.92162900,-0.02306841
10.80000053,-25.46752000,26.75935000,3.93700800,-0.02199188
10.88000053,-23.86811000,25.60593000,3.93700800,-0.02070005
10.96000053,-22.08415000,23.96038000,3.95238700,-0.01925443
11.04000053,-20.16179000,21.91498000,3.95238700,-0.01771653
11.12000053,-18.11639000,19.60814000,3.95238700,-0.01608637
11.20000053,-15.94796000,17.10138000,3.95238700,-0.01433317
11.28000053,-13.68725000,14.48696000,3.93700800,-0.01251845
11.36000054,-11.34966000,11.82640000,3.92162900,-0.01064222
