Time,Channel A,Channel B,Channel C,Channel D
(ns),(mV),(mV),(mV),(V)

-15.31666683,-0.13841040,-0.24606300,3.93700800,0.00784326
-15.23666682,-0.49212600,-0.75356790,4.13693400,0.00784326
-15.15666682,-0.92273620,-1.26107300,4.50602900,0.00787402
-15.07666682,-1.43024100,-1.78395700,5.02891200,0.00790477
-14.99666682,-1.96850400,-2.27608300,5.62869100,0.00790477
-14.91666682,-2.52214600,-2.75283000,6.22846900,0.00790477
-14.83666682,-3.01427100,-3.18344000,6.79749000,0.00787402
-14.75666682,-3.44488200,-3.55253400,7.28961600,0.00787402
-14.67666682,-3.73708200,-3.81397600,7.62795300,0.00784326
-14.59666682,-3.90625000,-3.92162900,7.81250000,0.00784326
-14.51666681,-3.90625000,-3.87549200,7.82787800,0.00787402
-14.43666681,-3.73708200,-3.64480800,7.67408900,0.00793553
-14.35666681,-3.44488200,-3.24495600,7.38188900,0.00805856
-14.27666681,-3.01427100,-2.69131400,6.96665800,0.00821235
-14.19666681,-2.52214600,-2.04539800,6.47453200,0.00836614
-14.11666681,-1.96850400,-1.36872500,5.92089000,0.00851993
-14.03666681,-1.43024100,-0.73818890,5.38262700,0.00858145
-13.95666681,-0.92273620,-0.26144190,4.85974400,0.00855069
-13.87666681,-0.49212600,0.03075787,4.41375400,0.00839690
-13.79666680,-0.13841040,0.07689468,4.06003900,0.00805856
-13.71666680,0.10765260,-0.13841040,3.81397600,0.00756644
-13.63666680,0.27682080,-0.61515740,3.66018700,0.00688976
-13.55666680,0.33833660,-1.32258800,3.59867100,0.00602854
-13.47666680,0.35371550,-2.18380900,3.59867100,0.00501353
-13.39666680,0.30757870,-3.16806100,3.64480800,0.00396777
-13.31666680,0.23068400,-4.19845000,3.72170300,0.00286048
-13.23666680,0.15378940,-5.18270100,3.78321800,0.00184547
-13.15666680,0.09227362,-6.10543700,3.82935500,0.00098425
-13.07666680,0.03075787,-6.92052100,3.87549200,0.00036909
-12.99666679,0.00000000,-7.56643700,3.90625000,0.00003076
-12.91666679,0.00000000,-8.07394100,3.93700800,0.00003076
-12.83666679,0.03075787,-8.42765700,3.98314500,0.00036909
-12.75666679,0.09227362,-8.64296200,4.04466000,0.00098425
-12.67666679,0.15378940,-8.75061400,4.10617600,0.00184547
-12.59666679,0.23068400,-8.75061400,4.18307100,0.00286048
-12.51666679,0.30757870,-8.68909800,4.25996500,0.00396777
-12.43666679,0.33833660,-8.55068800,4.29072300,0.00501353
-12.35666679,0.33833660,-8.39689900,4.27534400,0.00602854
-12.27666678,0.26144190,-8.19697300,4.19845000,0.00688976
-12.19666678,0.10765260,-7.96628900,4.02928100,0.00756644
-12.11666678,-0.12303150,-7.72022600,3.78321800,0.00805856
-12.03666678,-0.44598910,-7.42802600,3.44488200,0.00839690
-11.95666678,-0.83046260,-7.12044700,3.01427100,0.00855069
-11.87666678,-1.26107300,-6.78211100,2.50676700,0.00858145
-11.79666678,-1.73782000,-6.39763700,1.98388300,0.00851993
-11.71666678,-2.21456700,-5.99778500,1.43024100,0.00836614
-11.63666678,-2.67593500,-5.55179600,0.92273620,0.00821235
-11.55666677,-3.10654500,-5.10580700,0.49212600,0.00805856
-11.47666677,-3.47564000,-4.62906000,0.18454720,0.00793553
-11.39666677,-3.78321800,-4.15231300,0.01537894,0.00787402
-11.31666677,-4.04466000,-3.69094500,0.01537894,0.00784326
-11.23666677,-4.22920700,-3.22957700,0.18454720,0.00784326
-11.15666677,-4.36761800,-2.76820900,0.49212600,0.00787402
-11.07666677,-4.44451300,-2.33759800,0.92273620,0.00787402
-10.99666677,-4.49065000,-1.90698800,1.43024100,0.00790477
-10.91666677,-4.49065000,-1.50713600,1.98388300,0.00790477
-10.83666677,-4.44451300,-1.10728300,2.50676700,0.00790477
-10.75666676,-4.36761800,-0.73818890,2.99889300,0.00787402
-10.67666676,-4.22920700,-0.41523130,3.42950300,0.00784326
-10.59666676,-4.04466000,-0.12303150,3.78321800,0.00784326
-10.51666676,-3.78321800,0.10765260,4.04466000,0.00784326
-10.43666676,-3.47564000,0.29219980,4.24458600,0.00784326
-10.35666676,-3.10654500,0.43061020,4.36761800,0.00787402
-10.27666676,-2.67593500,0.50750490,4.45989200,0.00790477
-10.19666676,-2.21456700,0.53826270,4.49065000,0.00790477
-10.11666676,-1.73782000,0.53826270,4.49065000,0.00790477
-10.03666675,-1.26107300,0.50750490,4.44451300,0.00787402
-9.95666675,-0.83046260,0.43061020,4.36761800,0.00787402
-9.87666675,-0.44598910,0.30757870,4.22920700,0.00784326
-9.79666675,-0.12303150,0.12303150,4.04466000,0.00784326
-9.71666675,0.10765260,-0.13841040,3.78321800,0.00787402
-9.63666675,0.26144190,-0.49212600,3.47564000,0.00793553
-9.55666675,0.33833660,-0.93811510,3.10654500,0.00805856
-9.47666675,0.33833660,-1.43024100,2.67593500,0.00821235
-9.39666675,0.30757870,-1.96850400,2.21456700,0.00836614
-9.31666674,0.23068400,-2.52214600,1.73782000,0.00851993
-9.23666674,0.16916830,-3.01427100,1.27645200,0.00858145
-9.15666674,0.09227362,-3.44488200,0.83046260,0.00855069
-9.07666674,0.04613681,-3.73708200,0.46136810,0.00836614
-8.99666674,0.01537894,-3.90625000,0.13841040,0.00805856
-8.91666674,0.00000000,-3.90625000,-0.12303150,0.00759720
-8.83666674,-0.01537894,-3.73708200,-0.30757870,0.00698204
-8.75666674,0.00000000,-3.44488200,-0.43061020,0.00621309
-8.67666674,0.00000000,-3.01427100,-0.50750490,0.00535187
-8.59666674,0.00000000,-2.52214600,-0.53826270,0.00442913
-8.51666673,0.00000000,-1.96850400,-0.53826270,0.00347564
-8.43666673,0.00000000,-1.43024100,-0.50750490,0.00252215
-8.35666673,0.00000000,-0.93811510,-0.43061020,0.00166093
-8.27666673,0.00000000,-0.49212600,-0.30757870,0.00089198
-8.19666673,0.00000000,-0.13841040,-0.12303150,0.00024606
-8.11666673,0.00000000,0.12303150,0.13841040,-0.00021531
-8.03666673,0.00000000,0.30757870,0.46136810,-0.00052288
-7.95666673,0.00000000,0.43061020,0.83046260,-0.00067667
-7.87666673,0.00000000,0.50750490,1.27645200,-0.00067667
-7.79666672,0.00000000,0.53826270,1.73782000,-0.00061516
-7.71666672,0.00000000,0.53826270,2.21456700,-0.00046137
-7.63666672,0.00000000,0.50750490,2.67593500,-0.00030758
-7.55666672,0.00000000,0.43061020,3.10654500,-0.00018455
-7.47666672,0.00000000,0.30757870,3.49101900,-0.00006152
-7.39666672,0.00000000,0.12303150,3.79859700,0.00000000
-7.31666672,0.00000000,-0.13841040,4.02928100,0.00000000
-7.23666672,0.00000000,-0.46136810,4.18307100,-0.00006152
-7.15666672,0.00000000,-0.83046260,4.27534400,-0.00018455
-7.07666672,0.00000000,-1.27645200,4.29072300,-0.00030758
-6.99666671,0.00000000,-1.73782000,4.25996500,-0.00046137
-6.91666671,0.00000000,-2.21456700,4.18307100,-0.00061516
-6.83666671,0.00000000,-2.67593500,4.10617600,-0.00070743
-6.75666671,0.00000000,-3.10654500,4.04466000,-0.00067667
-6.67666671,0.01537894,-3.49101900,3.98314500,-0.00055364
-6.59666671,0.00000000,-3.79859700,3.93700800,-0.00021531
-6.51666671,-0.01537894,-4.02928100,3.90625000,0.00027682
-6.43666671,-0.04613681,-4.18307100,3.87549200,0.00098425
-6.35666671,-0.09227362,-4.27534400,3.82935500,0.00184547
-6.27666670,-0.16916830,-4.29072300,3.78321800,0.00286048
-6.19666670,-0.23068400,-4.25996500,3.72170300,0.00393701
-6.11666670,-0.30757870,-4.18307100,3.64480800,0.00504429
-6.03666670,-0.35371550,-4.10617600,3.59867100,0.00602854
-5.95666670,-0.33833660,-4.02928100,3.59867100,0.00688976
-5.87666670,-0.27682080,-3.96776600,3.66018700,0.00747416
-5.79666670,-0.10765260,-3.93700800,3.81397600,0.00781250
-5.71666670,0.13841040,-3.92162900,4.06003900,0.00781250
-5.63666670,0.49212600,-3.92162900,4.41375400,0.00747416
-5.55666669,0.92273620,-3.93700800,4.85974400,0.00688976
-5.47666669,1.43024100,-3.93700800,5.38262700,0.00602854
-5.39666669,1.96850400,-3.95238700,5.92089000,0.00504429
-5.31666669,2.52214600,-3.95238700,6.47453200,0.00393701
-5.23666669,3.01427100,-3.93700800,6.96665800,0.00286048
-5.15666669,3.44488200,-3.93700800,7.38188900,0.00184547
-5.07666669,3.73708200,-3.92162900,7.67408900,0.00098425
-4.99666669,3.90625000,-3.92162900,7.82787800,0.00027682
-4.91666669,3.90625000,-3.93700800,7.82787800,-0.00021531
-4.83666669,3.73708200,-3.96776600,7.67408900,-0.00055364
-4.75666668,3.44488200,-4.02928100,7.38188900,-0.00067667
-4.67666668,3.01427100,-4.10617600,6.96665800,-0.00070743
-4.59666668,2.52214600,-4.18307100,6.47453200,-0.00061516
-4.51666668,1.96850400,-4.25996500,5.92089000,-0.00046137
-4.43666668,1.43024100,-4.29072300,5.38262700,-0.00030758
-4.35666668,0.93811510,-4.27534400,4.85974400,-0.00018455
-4.27666668,0.49212600,-4.18307100,4.41375400,-0.00006152
-4.19666668,0.13841040,-4.02928100,4.06003900,0.00000000
-4.11666668,-0.12303150,-3.79859700,3.81397600,0.00000000
-4.03666667,-0.30757870,-3.49101900,3.66018700,-0.00006152
-3.95666667,-0.43061020,-3.10654500,3.59867100,-0.00018455
-3.87666667,-0.50750490,-2.67593500,3.59867100,-0.00030758
-3.79666667,-0.53826270,-2.21456700,3.64480800,-0.00046137
-3.71666667,-0.53826270,-1.73782000,3.72170300,-0.00061516
-3.63666667,-0.50750490,-1.26107300,3.78321800,-0.00067667
-3.55666667,-0.43061020,-0.83046260,3.82935500,-0.00067667
-3.47666667,-0.30757870,-0.44598910,3.87549200,-0.00052288
-3.39666667,-0.12303150,-0.12303150,3.90625000,-0.00021531
-3.31666666,0.13841040,0.10765260,3.93700800,0.00024606
-3.23666666,0.49212600,0.26144190,3.98314500,0.00089198
-3.15666666,0.93811510,0.33833660,4.04466000,0.00166093
-3.07666666,1.43024100,0.33833660,4.10617600,0.00252215
-2.99666666,1.96850400,0.30757870,4.18307100,0.00347564
-2.91666666,2.52214600,0.23068400,4.25996500,0.00442913
-2.83666666,3.01427100,0.15378940,4.29072300,0.00535187
-2.75666666,3.44488200,0.09227362,4.27534400,0.00621309
-2.67666666,3.73708200,0.03075787,4.18307100,0.00698204
-2.59666666,3.90625000,0.00000000,4.02928100,0.00759720
-2.51666665,3.90625000,0.00000000,3.79859700,0.00805856
-2.43666665,3.73708200,0.03075787,3.49101900,0.00836614
-2.35666665,3.44488200,0.09227362,3.10654500,0.00855069
-2.27666665,3.01427100,0.15378940,2.67593500,0.00858145
-2.19666665,2.52214600,0.23068400,2.21456700,0.00851993
-2.11666665,1.96850400,0.30757870,1.73782000,0.00836614
-2.03666665,1.43024100,0.35371550,1.27645200,0.00821235
-1.95666665,0.92273620,0.33833660,0.84584150,0.00805856
-1.87666665,0.49212600,0.27682080,0.47674700,0.00793553
-1.79666664,0.13841040,0.10765260,0.15378940,0.00784326
-1.71666664,-0.10765260,-0.13841040,-0.13841040,0.00784326
-1.63666664,-0.27682080,-0.49212600,-0.38447340,0.00793553
-1.55666664,-0.33833660,-0.92273620,-0.61515740,0.00805856
-1.47666664,-0.35371550,-1.43024100,-0.83046260,0.00821235
-1.39666664,-0.30757870,-1.96850400,-1.01501000,0.00836614
-1.31666664,-0.23068400,-2.52214600,-1.15342000,0.00851993
-1.23666664,-0.16916830,-3.02965000,-1.10728300,0.00858145
-1.15666664,-0.09227362,-3.44488200,-0.79970470,0.00855069
-1.07666663,-0.04613681,-3.75246000,-0.36909450,0.00839690
-0.99666663,-0.01537894,-3.90625000,-0.03075787,0.00805856
-0.91666663,0.00000000,-3.89087100,-0.09227362,0.00756644
-0.83666663,0.01537894,-3.70632400,-0.72281000,0.00688976
-0.75666663,0.00000000,-3.35260800,-2.06077700,0.00602854
-0.67666663,0.00000000,-2.86048200,-3.98314500,0.00501353
-0.59666663,0.00000000,-2.27608300,-6.15157400,0.00396777
-0.51666663,0.00000000,-1.67630400,-7.96628900,0.00286048
-0.43666663,-0.01537894,-1.09190400,-8.51993000,0.00184547
-0.35666663,-0.03075787,-0.59977850,-6.82824800,0.00098425
-0.27666662,-0.04613681,-0.23068400,-2.12229300,0.00033834
-0.19666662,-0.03075787,-0.03075787,6.16695300,0.00003076
-0.11666662,0.04613681,0.00000000,18.33169000,0.00006152
-0.03666662,0.16916830,-0.13841040,34.24889000,0.00046137
0.04333338,0.38447340,-0.39985230,53.42642000,0.00116880
0.12333338,0.64591530,-0.75356790,75.06459000,0.00218381
0.20333338,0.95349410,-1.19955700,98.08685000,0.00335261
0.28333338,1.21493600,-1.67630400,121.29370000,0.00455217
0.36333338,1.30720900,-2.16843000,143.48550000,0.00572097
0.44333339,1.12266200,-2.67593500,163.61650000,0.00670522
0.52333339,0.70743110,-3.16806100,180.82550000,0.00741265
0.60333339,0.21530510,-3.67556500,194.55890000,0.00778174
0.68333339,-0.16916830,-4.16769200,204.58600000,0.00778174
0.76333339,-0.30757870,-4.69057600,210.96820000,0.00741265
0.84333339,-0.09227362,-5.19808000,213.99790000,0.00670522
0.92333339,0.44598910,-5.72096400,214.09020000,0.00572097
1.00333339,1.09190400,-6.22846900,211.73720000,0.00455217
1.08333339,1.49175700,-6.70521600,207.38490000,0.00335261
1.16333339,0.87659940,-7.13582600,201.35640000,0.00215305
1.24333340,-1.39948300,-7.50492100,193.83610000,0.00110728
1.32333340,-5.65944900,-7.76636300,184.88560000,0.00036909
1.40333340,-11.88792000,-7.87401500,174.45870000,0.00000000
1.48333340,-19.88497000,-7.76636300,162.47850000,0.00012303
1.56333340,-29.28149000,-7.39726800,148.88350000,0.00076895
1.64333340,-39.61614000,-6.79749000,133.71980000,0.00193775
1.72333340,-50.55056000,-5.99778500,117.18750000,0.00347564
1.80333340,-61.91560000,-5.04429100,99.65550000,0.00522884
1.88333340,-73.78813000,-4.10617600,81.61602000,0.00698204
1.96333341,-86.82947000,-3.39874500,63.69955000,0.00833538
2.04333341,-101.74700000,-3.12192400,46.62893000,0.00888903
2.12333341,-118.90990000,-3.26033400,31.08083000,0.00876599
2.20333341,-138.44120000,-3.67556500,17.60888000,0.00818159
2.28333341,-160.18700000,-4.15231300,6.58218500,0.00753568
2.36333341,-183.76290000,-4.47527100,-1.84547200,0.00713583
2.44333341,-208.59990000,-4.49065000,-7.75098400,0.00728962
2.52333341,-234.00590000,-4.22920700,-11.45731000,0.00790477
2.60333341,-259.35040000,-3.89087100,-13.42581000,0.00864296
2.68333342,-284.09510000,-3.92162900,-14.33317000,0.00873524
2.76333342,-308.08620000,-5.15194400,-14.76378000,0.00676673
2.84333342,-331.29300000,-8.42765700,-15.05598000,0.00126107
2.92333342,-353.50020000,-14.14862000,-15.34818000,-0.00845842
3.00333342,-374.46170000,-22.42249000,-15.60962000,-0.02263780
3.08333342,-393.91610000,-33.04933000,-15.70189000,-0.04112328
3.16333342,-411.58650000,-45.62930000,-15.45583000,-0.06323819
3.24333342,-427.24220000,-59.67027000,-14.70226000,-0.08812131
3.32333342,-440.65260000,-74.66473000,-13.36430000,-0.11494220
3.40333342,-451.69470000,-90.24359000,-11.45731000,-0.14290110
3.48333343,-460.35310000,-106.34530000,-9.21198300,-0.17169040
3.56333343,-466.82760000,-123.38520000,-6.90514200,-0.20158710
3.64333343,-471.36440000,-141.90140000,-4.65981800,-0.23320620
3.72333343,-474.05570000,-162.20160000,-2.59904000,-0.26688610
3.80333343,-474.88620000,-184.36270000,-0.79970470,-0.30281130
3.88333343,-473.84040000,-208.29230000,0.72281000,-0.34098180
3.96333343,-470.82610000,-233.68290000,1.99926200,-0.38105930
4.04333343,-465.75110000,-259.99630000,3.04502900,-0.42236710
4.12333343,-458.53840000,-286.58650000,3.92162900,-0.46395180
4.20333344,-449.26490000,-312.76140000,4.69057600,-0.50458290
4.28333344,-437.96130000,-337.82910000,5.38262700,-0.54296880
4.36333344,-424.90460000,-361.40500000,5.99778500,-0.57800200
4.44333344,-410.60220000,-383.21230000,6.58218500,-0.60851380
4.52333344,-395.57700000,-402.83580000,7.13582600,-0.63351990
4.60333344,-380.25960000,-419.98340000,7.62795300,-0.65219000
4.68333344,-365.04980000,-434.39340000,8.04318300,-0.66400100
4.76333344,-350.16300000,-445.89690000,8.38152000,-0.66886070
4.84333344,-335.64530000,-454.41680000,8.61220400,-0.66701530
4.92333345,-321.37360000,-459.96860000,8.73523500,-0.65895670
5.00333345,-307.10200000,-462.62920000,8.75061400,-0.64557700
5.08333345,-292.36900000,-462.56760000,8.68909800,-0.62773750
5.16333345,-276.83620000,-460.06090000,8.56606700,-0.60654530
5.24333345,-260.61150000,-455.40110000,8.39689900,-0.58292320
5.32333345,-244.04830000,-448.77270000,8.19697300,-0.55767100
5.40333345,-227.63900000,-440.29900000,7.96628900,-0.53128080
5.48333345,-211.89100000,-430.02580000,7.70484700,-0.50406000
5.56333345,-197.18870000,-417.95330000,7.39726800,-0.47607040
5.64333345,-183.77830000,-404.11230000,7.02817400,-0.44728100
5.72333346,-171.64430000,-388.53340000,6.61294300,-0.41766120
5.80333346,-160.55610000,-371.35520000,6.16695300,-0.38718010
5.88333346,-149.83700000,-352.68510000,5.69020700,-0.35583790
5.96333346,-138.85640000,-332.86170000,5.21345900,-0.32388040
6.04333346,-127.47600000,-312.43850000,4.76747000,-0.29210750
6.12333346,-115.74190000,-292.04600000,4.36761800,-0.26147270
6.20333346,-103.91550000,-272.29940000,4.04466000,-0.23289860
6.28333346,-92.31975000,-253.62940000,3.81397600,-0.20724660
6.36333346,-81.29305000,-236.34350000,3.66018700,-0.18503940
6.44333347,-71.11221000,-220.50320000,3.59867100,-0.16643090
6.52333347,-61.88484000,-205.95470000,3.59867100,-0.15111340
6.60333347,-53.58022000,-192.39050000,3.64480800,-0.13847190
6.68333347,-45.87537000,-179.22610000,3.72170300,-0.12727610
6.76333347,-38.43196000,-165.98490000,3.78321800,-0.11635700
6.84333347,-31.26538000,-152.71280000,3.82935500,-0.10540720
6.92333347,-24.51402000,-139.68690000,3.87549200,-0.09439591
7.00333347,-18.42397000,-127.35300000,3.90625000,-0.08359990
7.08333347,-13.21051000,-116.18790000,3.93700800,-0.07354207
7.16333348,-9.07357200,-106.57600000,3.98314500,-0.06465305
7.24333348,-6.12081600,-98.73277000,4.04466000,-0.05736344
7.32333348,-4.32148100,-92.59658000,4.10617600,-0.05176550
7.40333348,-3.49101900,-87.85986000,4.18307100,-0.04770546
7.48333348,-3.27571300,-83.81520000,4.25996500,-0.04456816
7.56333348,-3.30647100,-79.73978000,4.29072300,-0.04164616
7.64333348,-3.44488200,-75.32603000,4.27534400,-0.03875492
7.72333348,-3.59867100,-70.51243000,4.18307100,-0.03577141
7.80333348,-3.78321800,-65.37586000,4.02928100,-0.03281865
7.88333348,-4.09079700,-60.14702000,3.79859700,-0.02998893
7.96333349,-4.59830200,-55.10273000,3.49101900,-0.02749754
8.04333349,-5.36724900,-50.44291000,3.10654500,-0.02546752
8.12333349,-6.42839500,-46.32135000,2.67593500,-0.02399114
8.20333349,-7.78174200,-42.70731000,2.21456700,-0.02306841
8.28333349,-9.27349900,-39.37008000,1.73782000,-0.02251476
8.36333349,-10.81139000,-35.98671000,1.27645200,-0.02217643
8.44333349,-12.31853000,-32.48031000,0.84584150,-0.02208415
8.52333349,-13.74877000,-28.88164000,0.46136810,-0.02233022
8.60333349,-15.07136000,-25.28297000,0.13841040,-0.02300689
8.68333350,-16.27091000,-21.83809000,-0.12303150,-0.02423720
8.76333350,-17.33206000,-18.65465000,-0.35371550,-0.02608268
8.84333350,-18.23942000,-15.85568000,-0.52288380,-0.02857406
8.92333350,-19.03912000,-13.45657000,-0.67667320,-0.03158834
9.00333350,-19.73118000,-11.42655000,-0.78432570,-0.03494094
9.08333350,-20.34633000,-9.58107800,-0.84584150,-0.03835507
9.16333350,-20.93073000,-7.70484700,-0.84584150,-0.04146161
9.24333350,-21.54589000,-5.70558500,-0.76894680,-0.04404528
9.32333350,-22.25332000,-3.53715500,-0.56902060,-0.04592150
9.40333351,-23.06841000,-1.21493600,-0.23068400,-0.04690576
9.48333351,-24.03728000,1.23031500,0.27682080,-0.04699803
9.56333351,-25.12918000,3.69094500,0.93811510,-0.04622908
9.64333351,-26.31336000,6.10543700,1.76857800,-0.04466043
9.72333351,-27.54367000,8.39689900,2.70669300,-0.04244586
9.80333351,-28.74323000,10.51919000,3.70632400,-0.03976993
9.88333351,-29.83514000,12.48770000,4.73671200,-0.03678642
9.96333351,-30.71173000,14.34855000,5.70558500,-0.03361836
10.04333351,-31.32689000,16.05561000,6.55142700,-0.03048105
10.12333351,-31.60371000,17.62426000,7.24347900,-0.02749754
10.20333352,-31.54220000,18.99298000,7.70484700,-0.02476009
10.28333352,-31.12697000,20.17716000,7.92015200,-0.02239173
10.36333352,-30.40416000,21.14604000,7.88939400,-0.02033095
10.44333352,-29.40452000,21.88423000,7.61257400,-0.01863927
10.52333352,-28.14345000,22.40711000,7.15120500,-0.01716289
10.60333352,-26.69783000,22.69931000,6.53604800,-0.01587106
10.68333352,-25.05229000,22.77620000,5.85937500,-0.01464075
10.76333352,-23.23757000,22.59166000,5.19808000,-0.01337968
10.84333352,-21.25369000,22.11491000,4.61368100,-0.01196481
10.92333353,-19.11602000,21.34596000,4.19845000,-0.01039616
11.00333353,-16.85531000,20.25406000,3.96776600,-0.00870448
11.08333353,-14.50234000,18.90071000,3.93700800,-0.00695128
11.16333353,-12.11860000,17.27055000,4.09079700,-0.00516732
11.24333353,-9.68872900,15.42507000,4.41375400,-0.00344488
11.32333353,-7.27423700,13.41043000,4.85974400,-0.00178396
11.40333353,-4.87512300,11.22662000,5.38262700,-0.00021531
11.48333353,-2.49138800,8.90440500,5.93626900,0.00129183
11.56333353,-0.10765260,6.42839500,6.45915300,0.00276821
11.64333353,2.27608300,3.72170300,6.93590000,0.00427534
