Time,Channel A,Channel B,Channel C,Channel D
(ns),(mV),(mV),(mV),(V)

-15.59999983,0.00000000,-0.13841040,4.02928100,0.00808932
-15.51999982,-0.03075787,-0.46136810,4.19845000,0.00845842
-15.43999982,-0.09227362,-0.83046260,4.27534400,0.00873524
-15.35999982,-0.15378940,-1.27645200,4.29072300,0.00888903
-15.27999982,-0.23068400,-1.73782000,4.25996500,0.00898130
-15.19999982,-0.30757870,-2.21456700,4.18307100,0.00898130
-15.11999982,-0.33833660,-2.67593500,4.10617600,0.00891978
-15.03999982,-0.33833660,-3.10654500,4.04466000,0.00873524
-14.95999982,-0.26144190,-3.49101900,3.98314500,0.00848917
-14.87999982,-0.10765260,-3.79859700,3.93700800,0.00808932
-14.79999981,0.12303150,-4.02928100,3.90625000,0.00756644
-14.71999981,0.44598910,-4.18307100,3.87549200,0.00685901
-14.63999981,0.83046260,-4.27534400,3.82935500,0.00599779
-14.55999981,1.26107300,-4.29072300,3.78321800,0.00501353
-14.47999981,1.73782000,-4.25996500,3.72170300,0.00396777
-14.39999981,2.21456700,-4.18307100,3.64480800,0.00286048
-14.31999981,2.67593500,-4.10617600,3.59867100,0.00184547
-14.23999981,3.10654500,-4.02928100,3.59867100,0.00101501
-14.15999981,3.47564000,-3.96776600,3.66018700,0.00039985
-14.07999980,3.78321800,-3.92162900,3.81397600,0.00006152
-13.99999980,4.04466000,-3.92162900,4.06003900,0.00003076
-13.91999980,4.22920700,-3.96776600,4.41375400,0.00027682
-13.83999980,4.36761800,-4.02928100,4.85974400,0.00079970
-13.75999980,4.44451300,-4.10617600,5.38262700,0.00153789
-13.67999980,4.49065000,-4.18307100,5.92089000,0.00239911
-13.59999980,4.49065000,-4.25996500,6.47453200,0.00335261
-13.51999980,4.44451300,-4.29072300,6.96665800,0.00433686
-13.43999980,4.36761800,-4.27534400,7.38188900,0.00532111
-13.35999980,4.22920700,-4.18307100,7.67408900,0.00633612
-13.27999979,4.04466000,-4.02928100,7.82787800,0.00732037
-13.19999979,3.78321800,-3.79859700,7.81250000,0.00836614
-13.11999979,3.47564000,-3.49101900,7.62795300,0.00944267
-13.03999979,3.10654500,-3.10654500,7.28961600,0.01061147
-12.95999979,2.67593500,-2.67593500,6.79749000,0.01178027
-12.87999979,2.21456700,-2.21456700,6.22846900,0.01294907
-12.79999979,1.73782000,-1.73782000,5.62869100,0.01402559
-12.71999979,1.26107300,-1.27645200,5.02891200,0.01494833
-12.63999979,0.83046260,-0.83046260,4.52140800,0.01562500
-12.55999978,0.44598910,-0.46136810,4.15231300,0.01596334
-12.47999978,0.12303150,-0.13841040,3.95238700,0.01587106
-12.39999978,-0.10765260,0.12303150,3.95238700,0.01537894
-12.31999978,-0.26144190,0.30757870,4.15231300,0.01442544
-12.23999978,-0.33833660,0.43061020,4.52140800,0.01307210
-12.15999978,-0.33833660,0.50750490,5.02891200,0.01138041
-12.07999978,-0.30757870,0.53826270,5.62869100,0.00947343
-11.99999978,-0.23068400,0.53826270,6.22846900,0.00741265
-11.91999978,-0.16916830,0.50750490,6.79749000,0.00541339
-11.83999977,-0.09227362,0.43061020,7.28961600,0.00350640
-11.75999977,-0.04613681,0.30757870,7.62795300,0.00187623
-11.67999977,-0.01537894,0.12303150,7.81250000,0.00052288
-11.59999977,0.00000000,-0.13841040,7.82787800,-0.00043061
-11.51999977,0.01537894,-0.46136810,7.67408900,-0.00107653
-11.43999977,0.00000000,-0.83046260,7.38188900,-0.00135335
-11.35999977,0.00000000,-1.27645200,6.96665800,-0.00138410
-11.27999977,0.00000000,-1.73782000,6.47453200,-0.00123032
-11.19999977,0.00000000,-2.21456700,5.92089000,-0.00095349
-11.11999977,0.00000000,-2.67593500,5.38262700,-0.00064592
-11.03999976,0.00000000,-3.10654500,4.85974400,-0.00036909
-10.95999976,0.00000000,-3.47564000,4.41375400,-0.00018455
-10.87999976,0.00000000,-3.78321800,4.06003900,-0.00003076
-10.79999976,0.00000000,-4.04466000,3.81397600,0.00003076
-10.71999976,0.00000000,-4.22920700,3.66018700,0.00003076
-10.63999976,0.00000000,-4.36761800,3.59867100,0.00003076
-10.55999976,0.00000000,-4.44451300,3.59867100,0.00000000
-10.47999976,0.00000000,-4.49065000,3.64480800,0.00000000
-10.39999976,0.00000000,-4.49065000,3.72170300,0.00000000
-10.31999975,0.00000000,-4.44451300,3.78321800,0.00000000
-10.23999975,0.00000000,-4.36761800,3.84473400,0.00000000
-10.15999975,-0.01537894,-4.22920700,3.89087100,0.00000000
-10.07999975,0.00000000,-4.04466000,3.90625000,0.00000000
-9.99999975,0.01537894,-3.78321800,3.92162900,0.00000000
-9.91999975,0.04613681,-3.47564000,3.93700800,0.00000000
-9.83999975,0.09227362,-3.10654500,3.93700800,0.00000000
-9.75999975,0.16916830,-2.67593500,3.95238700,0.00000000
-9.67999975,0.23068400,-2.21456700,3.95238700,0.00000000
-9.59999974,0.30757870,-1.73782000,3.95238700,0.00000000
-9.51999974,0.33833660,-1.27645200,3.95238700,0.00000000
-9.43999974,0.33833660,-0.83046260,3.93700800,0.00000000
-9.35999974,0.26144190,-0.46136810,3.92162900,0.00003076
-9.27999974,0.10765260,-0.13841040,3.92162900,0.00000000
-9.19999974,-0.12303150,0.12303150,3.92162900,-0.00003076
-9.11999974,-0.44598910,0.30757870,3.92162900,-0.00009227
-9.03999974,-0.83046260,0.43061020,3.93700800,-0.00018455
-8.95999974,-1.26107300,0.50750490,3.95238700,-0.00033834
-8.87999974,-1.73782000,0.53826270,3.95238700,-0.00046137
-8.79999973,-2.21456700,0.53826270,3.95238700,-0.00061516
-8.71999973,-2.67593500,0.50750490,3.95238700,-0.00067667
-8.63999973,-3.10654500,0.43061020,3.93700800,-0.00067667
-8.55999973,-3.47564000,0.30757870,3.92162900,-0.00052288
-8.47999973,-3.78321800,0.12303150,3.92162900,-0.00021531
-8.39999973,-4.04466000,-0.13841040,3.92162900,0.00024606
-8.31999973,-4.22920700,-0.49212600,3.92162900,0.00089198
-8.23999973,-4.36761800,-0.93811510,3.93700800,0.00166093
-8.15999973,-4.44451300,-1.43024100,3.95238700,0.00252215
-8.07999972,-4.49065000,-1.96850400,3.95238700,0.00347564
-7.99999972,-4.49065000,-2.52214600,3.95238700,0.00442913
-7.91999972,-4.44451300,-3.02965000,3.93700800,0.00535187
-7.83999972,-4.36761800,-3.46026100,3.93700800,0.00621309
-7.75999972,-4.22920700,-3.76783900,3.92162900,0.00698204
-7.67999972,-4.04466000,-3.92162900,3.92162900,0.00759720
-7.59999972,-3.78321800,-3.87549200,3.93700800,0.00805856
-7.51999972,-3.47564000,-3.66018700,3.96776600,0.00836614
-7.43999972,-3.10654500,-3.24495600,4.02928100,0.00855069
-7.35999972,-2.67593500,-2.69131400,4.10617600,0.00858145
-7.27999971,-2.21456700,-2.04539800,4.18307100,0.00851993
-7.19999971,-1.73782000,-1.36872500,4.25996500,0.00836614
-7.11999971,-1.26107300,-0.73818890,4.29072300,0.00821235
-7.03999971,-0.83046260,-0.24606300,4.27534400,0.00805856
-6.95999971,-0.44598910,0.04613681,4.19845000,0.00793553
-6.87999971,-0.12303150,0.07689468,4.02928100,0.00787402
-6.79999971,0.10765260,-0.15378940,3.78321800,0.00784326
-6.71999971,0.26144190,-0.66129420,3.44488200,0.00784326
-6.63999971,0.33833660,-1.41486200,3.01427100,0.00787402
-6.55999970,0.33833660,-2.35297700,2.50676700,0.00787402
-6.47999970,0.30757870,-3.41412400,1.98388300,0.00790477
-6.39999970,0.23068400,-4.49065000,1.43024100,0.00790477
-6.31999970,0.15378940,-5.53641700,0.92273620,0.00787402
-6.23999970,0.09227362,-6.45915300,0.49212600,0.00787402
-6.15999970,0.03075787,-7.18196300,0.18454720,0.00784326
-6.07999970,0.00000000,-7.68946800,0.01537894,0.00784326
-5.99999970,0.00000000,-7.93553100,0.01537894,0.00787402
-5.91999970,0.03075787,-7.93553100,0.18454720,0.00793553
-5.83999969,0.09227362,-7.72022600,0.49212600,0.00805856
-5.75999969,0.15378940,-7.32037400,0.92273620,0.00821235
-5.67999969,0.23068400,-6.78211100,1.43024100,0.00836614
-5.59999969,0.30757870,-6.16695300,1.98388300,0.00851993
-5.51999969,0.35371550,-5.53641700,2.50676700,0.00858145
-5.43999969,0.33833660,-4.95201700,3.01427100,0.00855069
-5.35999969,0.27682080,-4.45989200,3.44488200,0.00836614
-5.27999969,0.10765260,-4.07541800,3.78321800,0.00805856
-5.19999969,-0.13841040,-3.79859700,4.02928100,0.00759720
-5.11999969,-0.49212600,-3.64480800,4.19845000,0.00698204
-5.03999968,-0.92273620,-3.58329200,4.27534400,0.00621309
-4.95999968,-1.43024100,-3.59867100,4.29072300,0.00535187
-4.87999968,-1.96850400,-3.64480800,4.25996500,0.00442913
-4.79999968,-2.52214600,-3.72170300,4.18307100,0.00347564
-4.71999968,-3.02965000,-3.78321800,4.10617600,0.00252215
-4.63999968,-3.44488200,-3.82935500,4.02928100,0.00166093
-4.55999968,-3.75246000,-3.87549200,3.96776600,0.00089198
-4.47999968,-3.90625000,-3.90625000,3.92162900,0.00024606
-4.39999968,-3.89087100,-3.93700800,3.92162900,-0.00021531
-4.31999967,-3.70632400,-3.98314500,3.96776600,-0.00052288
-4.23999967,-3.35260800,-4.04466000,4.02928100,-0.00067667
-4.15999967,-2.86048200,-4.10617600,4.10617600,-0.00067667
-4.07999967,-2.27608300,-4.18307100,4.18307100,-0.00061516
-3.99999967,-1.67630400,-4.25996500,4.25996500,-0.00046137
-3.91999967,-1.09190400,-4.29072300,4.29072300,-0.00033834
-3.83999967,-0.58439960,-4.27534400,4.27534400,-0.00018455
-3.75999967,-0.21530510,-4.18307100,4.18307100,-0.00009227
-3.67999967,-0.03075787,-4.02928100,4.02928100,-0.00003076
-3.59999966,-0.03075787,-3.79859700,3.79859700,0.00000000
-3.51999966,-0.21530510,-3.49101900,3.49101900,0.00003076
-3.43999966,-0.58439960,-3.10654500,3.10654500,0.00000000
-3.35999966,-1.09190400,-2.67593500,2.67593500,0.00000000
-3.27999966,-1.67630400,-2.21456700,2.21456700,0.00000000
-3.19999966,-2.27608300,-1.73782000,1.73782000,0.00000000
-3.11999966,-2.86048200,-1.27645200,1.27645200,0.00000000
-3.03999966,-3.35260800,-0.84584150,0.83046260,0.00000000
-2.95999966,-3.70632400,-0.46136810,0.46136810,0.00003076
-2.87999966,-3.89087100,-0.13841040,0.13841040,0.00000000
-2.79999965,-3.90625000,0.12303150,-0.12303150,-0.00003076
-2.71999965,-3.75246000,0.35371550,-0.30757870,-0.00009227
-2.63999965,-3.44488200,0.52288380,-0.43061020,-0.00018455
-2.55999965,-3.02965000,0.67667320,-0.50750490,-0.00033834
-2.47999965,-2.52214600,0.78432570,-0.53826270,-0.00046137
-2.39999965,-1.96850400,0.84584150,-0.53826270,-0.00061516
-2.31999965,-1.43024100,0.84584150,-0.50750490,-0.00067667
-2.23999965,-0.92273620,0.76894680,-0.43061020,-0.00067667
-2.15999965,-0.49212600,0.56902060,-0.30757870,-0.00052288
-2.07999964,-0.13841040,0.23068400,-0.12303150,-0.00021531
-1.99999964,0.10765260,-0.27682080,0.13841040,0.00024606
-1.91999964,0.27682080,-0.93811510,0.46136810,0.00089198
-1.83999964,0.33833660,-1.76857800,0.83046260,0.00166093
-1.75999964,0.35371550,-2.70669300,1.27645200,0.00252215
-1.67999964,0.30757870,-3.70632400,1.73782000,0.00347564
-1.59999964,0.23068400,-4.73671200,2.21456700,0.00442913
-1.51999964,0.15378940,-5.69020700,2.70669300,0.00535187
-1.43999964,0.09227362,-6.53604800,3.21419800,0.00621309
-1.35999963,0.03075787,-7.21272100,3.66018700,0.00698204
-1.27999963,0.00000000,-7.68946800,3.90625000,0.00759720
-1.19999963,0.00000000,-7.93553100,3.84473400,0.00805856
-1.11999963,0.03075787,-7.98166800,3.41412400,0.00836614
-1.03999963,0.09227362,-7.81250000,2.56828200,0.00855069
-0.95999963,0.15378940,-7.47416300,1.36872500,0.00858145
-0.87999963,0.23068400,-7.01279500,0.00000000,0.00851993
-0.79999963,0.30757870,-6.47453200,-1.29183100,0.00836614
-0.71999963,0.33833660,-5.89013200,-1.95312500,0.00821235
-0.63999963,0.33833660,-5.30573300,-1.56865100,0.00805856
-0.55999962,0.26144190,-4.72133400,-0.06151574,0.00793553
-0.47999962,0.10765260,-4.18307100,2.41449300,0.00787402
-0.39999962,-0.12303150,-3.66018700,5.55179600,0.00784326
-0.31999962,-0.44598910,-3.16806100,8.98129900,0.00784326
-0.23999962,-0.83046260,-2.66055600,12.41080000,0.00787402
-0.15999962,-1.26107300,-2.16843000,15.73265000,0.00787402
-0.07999962,-1.73782000,-1.67630400,19.13140000,0.00790477
0.00000038,-2.21456700,-1.19955700,23.11454000,0.00790477
0.08000038,-2.70669300,-0.75356790,28.60482000,0.00787402
0.16000039,-3.18344000,-0.38447340,36.67876000,0.00787402
0.24000039,-3.59867100,-0.12303150,48.38213000,0.00784326
0.32000039,-3.87549200,0.00000000,64.57615000,0.00784326
0.40000039,-3.90625000,-0.04613681,85.75294000,0.00787402
0.48000039,-3.67556500,-0.27682080,111.95870000,0.00793553
0.56000039,-3.13730300,-0.69205210,142.60890000,0.00805856
0.64000039,-2.33759800,-1.24569400,176.51940000,0.00821235
0.72000039,-1.41486200,-1.90698800,211.99860000,0.00836614
0.80000039,-0.53826270,-2.58366100,246.95490000,0.00851993
0.88000039,-0.07689468,-3.21419800,279.12770000,0.00858145
0.96000040,-0.35371550,-3.69094500,306.30220000,0.00855069
1.04000040,-1.36872500,-3.98314500,326.57170000,0.00839690
1.12000040,-2.96813500,-4.01390200,338.59800000,0.00805856
1.20000040,-4.92125900,-3.76783900,341.62770000,0.00756644
1.28000040,-6.92052100,-3.22957700,335.72220000,0.00688976
1.36000040,-8.76599300,-2.42987200,321.60430000,0.00602854
1.44000040,-10.39616000,-1.43024100,300.61210000,0.00501353
1.52000040,-12.02633000,-0.30757870,274.54480000,0.00396777
1.60000040,-14.08710000,0.84584150,245.37090000,0.00286048
1.68000041,-17.57812000,1.89160900,215.05900000,0.00178396
1.76000041,-23.43750000,2.72207200,185.36230000,0.00079970
1.84000041,-32.17273000,3.33722900,157.63410000,0.00006152
1.92000041,-43.96838000,3.75246000,132.78170000,-0.00015379
2.00000041,-58.70140000,4.07541800,111.23580000,0.00036909
2.08000041,-75.95657000,4.38299700,92.91953000,0.00175320
2.16000041,-95.10334000,4.75209100,77.44832000,0.00402928
2.24000041,-115.49580000,5.18270100,64.20706000,0.00704355
2.32000041,-136.56490000,5.58255400,52.54982000,0.01045768
2.40000042,-157.97240000,5.78248000,41.83070000,0.01368725
2.48000042,-179.87200000,5.33649100,31.61909000,0.01584031
2.56000042,-202.58670000,3.90625000,21.79195000,0.01608637
2.64000042,-226.13190000,1.41486200,12.44156000,0.01424090
2.72000042,-250.43060000,-1.96850400,3.87549200,0.01039616
2.80000042,-275.26760000,-5.99778500,-3.53715500,0.00498278
2.88000042,-300.31990000,-10.31927000,-9.48880400,-0.00141486
2.96000042,-325.14150000,-14.70226000,-13.73339000,-0.00833538
3.04000042,-349.20950000,-19.00837000,-16.28629000,-0.01544045
3.12000042,-372.07800000,-23.37598000,-17.33206000,-0.02294537
3.20000043,-393.33170000,-28.23573000,-17.40895000,-0.03143455
3.28000043,-412.90910000,-34.54109000,-17.11676000,-0.04238435
3.36000043,-430.79470000,-43.26095000,-16.70152000,-0.05733268
3.44000043,-446.78880000,-54.93356000,-16.30167000,-0.07726378
3.52000043,-460.67600000,-69.82037000,-15.90182000,-0.10279280
3.60000043,-472.24100000,-87.82910000,-15.44045000,-0.13391980
3.68000043,-481.25310000,-108.55990000,-14.76378000,-0.17015260
3.76000043,-487.55840000,-131.39760000,-13.76415000,-0.21047610
3.84000043,-491.09560000,-155.55790000,-12.34929000,-0.25359870
3.92000044,-491.89530000,-180.33340000,-10.54995000,-0.29798230
4.00000044,-490.06520000,-205.13960000,-8.50455100,-0.34227360
4.08000044,-485.95900000,-229.82280000,-6.41301600,-0.38545770
4.16000044,-479.99200000,-254.33690000,-4.36761800,-0.42679630
4.24000044,-472.51780000,-278.54330000,-2.47600900,-0.46558190
4.32000044,-463.73650000,-302.21150000,-0.76894680,-0.50123030
4.40000044,-453.83240000,-325.15690000,0.70743110,-0.53337230
4.48000044,-442.82110000,-347.08720000,1.96850400,-0.56173100
4.56000044,-430.68710000,-367.72570000,3.02965000,-0.58624510
4.64000045,-417.35360000,-386.76490000,3.92162900,-0.60685280
4.72000045,-402.77440000,-403.94310000,4.69057600,-0.62349280
4.80000045,-386.82640000,-418.99910000,5.38262700,-0.63616510
4.88000045,-369.58660000,-431.90200000,5.99778500,-0.64493110
4.96000045,-351.47020000,-442.63650000,6.58218500,-0.64976010
5.04000045,-333.01550000,-451.03340000,7.13582600,-0.65043680
5.12000045,-314.80680000,-456.95430000,7.62795300,-0.64680730
5.20000045,-297.32100000,-460.21470000,8.04318300,-0.63859500
5.28000045,-280.92700000,-460.70680000,8.38152000,-0.62576900
5.36000045,-265.71730000,-458.40000000,8.61220400,-0.60839070
5.44000046,-251.59940000,-453.30950000,8.73523500,-0.58673720
5.52000046,-238.26590000,-445.60470000,8.75061400,-0.56136200
5.60000046,-225.02460000,-435.53150000,8.68909800,-0.53288020
5.68000046,-211.29120000,-423.48970000,8.56606700,-0.50224530
5.76000046,-197.03490000,-409.98710000,8.39689900,-0.47047240
5.84000046,-182.45570000,-395.46930000,8.19697300,-0.43857650
5.92000046,-167.92260000,-380.33650000,7.96628900,-0.40738800
6.00000046,-153.91240000,-364.84990000,7.70484700,-0.37749140
6.08000046,-140.84030000,-349.13260000,7.39726800,-0.34922490
6.16000047,-128.96780000,-333.20000000,7.02817400,-0.32258860
6.24000047,-118.38710000,-317.00600000,6.61294300,-0.29736710
6.32000047,-108.91360000,-300.42750000,6.16695300,-0.27319140
6.40000047,-99.96309000,-283.24920000,5.69020700,-0.24947710
6.48000047,-90.98178000,-265.42510000,5.21345900,-0.22576280
6.56000047,-81.83131000,-247.27790000,4.76747000,-0.20232530
6.64000047,-72.54244000,-229.33070000,4.36761800,-0.17974900
6.72000047,-63.33046000,-212.13700000,4.04466000,-0.15874140
6.80000047,-54.45681000,-196.15830000,3.81397600,-0.14004060
6.88000048,-46.19833000,-181.77900000,3.66018700,-0.12420030
6.96000048,-38.75492000,-169.13750000,3.59867100,-0.11149730
7.04000048,-32.21887000,-158.09550000,3.59867100,-0.10177780
7.12000048,-26.57480000,-148.34520000,3.64480800,-0.09451894
7.20000048,-21.51513000,-139.19470000,3.72170300,-0.08861344
7.28000048,-16.79380000,-130.02890000,3.78321800,-0.08304626
7.36000048,-12.42618000,-120.72460000,3.84473400,-0.07735606
7.44000048,-8.51993000,-111.38960000,3.89087100,-0.07148130
7.52000048,-5.25959600,-102.36220000,3.90625000,-0.06560654
7.60000048,-2.81434500,-93.98068000,3.92162900,-0.06003937
7.68000049,-1.33796700,-86.59879000,3.93700800,-0.05514887
7.76000049,-0.87659940,-80.43184000,3.93700800,-0.05121186
7.84000049,-1.38410400,-75.49519000,3.95238700,-0.04838214
7.92000049,-2.69131400,-71.63509000,3.95238700,-0.04659818
8.00000049,-4.45989200,-68.26710000,3.95238700,-0.04533711
8.08000049,-6.33612200,-64.86835000,3.95238700,-0.04419906
8.16000049,-8.16621500,-61.20817000,3.93700800,-0.04293799
8.24000049,-9.79638200,-57.25578000,3.92162900,-0.04152313
8.32000049,-11.16511000,-53.08809000,3.92162900,-0.04001600
8.40000050,-12.30315000,-48.92039000,3.92162900,-0.03844734
8.48000050,-13.24126000,-44.93725000,3.92162900,-0.03694021
8.56000050,-14.04097000,-41.33858000,3.93700800,-0.03564838
8.64000050,-14.76378000,-38.20128000,3.95238700,-0.03457185
8.72000050,-15.47121000,-35.47921000,3.95238700,-0.03374139
8.80000050,-16.14788000,-32.95706000,3.95238700,-0.03306472
8.88000050,-16.82456000,-30.32726000,3.95238700,-0.03241880
8.96000050,-17.54737000,-27.51292000,3.93700800,-0.03189592
9.04000050,-18.33169000,-24.46789000,3.92162900,-0.03149606
9.12000051,-19.16216000,-21.25369000,3.92162900,-0.03134227
9.20000051,-20.06951000,-17.96260000,3.92162900,-0.03149606
9.28000051,-20.99225000,-14.73302000,3.92162900,-0.03201895
9.36000051,-21.89960000,-11.64185000,3.93700800,-0.03291092
9.44000051,-22.79158000,-8.76599300,3.95238700,-0.03407972
9.52000051,-23.60667000,-6.10543700,3.95238700,-0.03543307
9.60000051,-24.36024000,-3.58329200,3.95238700,-0.03678642
9.68000051,-25.05229000,-1.07652500,3.95238700,-0.03795522
9.76000051,-25.69820000,1.46099900,3.93700800,-0.03881644
9.84000051,-26.35950000,4.01390200,3.92162900,-0.03927780
9.92000052,-27.06693000,6.58218500,3.92162900,-0.03933932
10.00000052,-27.86663000,9.08895100,3.92162900,-0.03900098
10.08000052,-28.74323000,11.50344000,3.92162900,-0.03829355
10.16000052,-29.71210000,13.77953000,3.93700800,-0.03730930
10.24000052,-30.71173000,15.84030000,3.95238700,-0.03604823
10.32000052,-31.66523000,17.70115000,3.95238700,-0.03460261
10.40000052,-32.48031000,19.33132000,3.95238700,-0.03297244
10.48000052,-33.01858000,20.74619000,3.95238700,-0.03112697
10.56000052,-33.17236000,21.93036000,3.93700800,-0.02912771
10.64000053,-32.83403000,22.80696000,3.93700800,-0.02694390
10.72000053,-32.00356000,23.37598000,3.92162900,-0.02469857
10.80000053,-30.63484000,23.60667000,3.90625000,-0.02236097
10.88000053,-28.77399000,23.51439000,3.89087100,-0.02002338
10.96000053,-26.48253000,23.08378000,3.84473400,-0.01765502
11.04000053,-23.83735000,22.36097000,3.78321800,-0.01531742
11.12000053,-20.94611000,21.37672000,3.72170300,-0.01301058
11.20000053,-17.87033000,20.14641000,3.64480800,-0.01070374
11.28000053,-14.70226000,18.70079000,3.59867100,-0.00833538
