Time,Channel A,Channel B,Channel C,Channel D
(ns),(mV),(mV),(mV),(V)

-15.79999983,3.90625000,0.12303150,0.01537894,0.00784326
-15.71999982,3.78321800,0.30757870,0.18454720,0.00784326
-15.63999982,3.53715500,0.43061020,0.49212600,0.00787402
-15.55999982,3.18344000,0.50750490,0.92273620,0.00790477
-15.47999982,2.75283000,0.53826270,1.43024100,0.00790477
-15.39999982,2.27608300,0.53826270,1.98388300,0.00790477
-15.31999982,1.78395700,0.50750490,2.50676700,0.00790477
-15.23999982,1.26107300,0.43061020,3.01427100,0.00787402
-15.15999982,0.75356790,0.30757870,3.44488200,0.00784326
-15.07999982,0.24606300,0.12303150,3.78321800,0.00784326
-14.99999981,-0.24606300,-0.13841040,4.02928100,0.00784326
-14.91999981,-0.75356790,-0.46136810,4.19845000,0.00784326
-14.83999981,-1.26107300,-0.83046260,4.27534400,0.00787402
-14.75999981,-1.78395700,-1.27645200,4.29072300,0.00790477
-14.67999981,-2.27608300,-1.73782000,4.25996500,0.00790477
-14.59999981,-2.75283000,-2.21456700,4.18307100,0.00790477
-14.51999981,-3.18344000,-2.67593500,4.10617600,0.00790477
-14.43999981,-3.53715500,-3.10654500,4.02928100,0.00787402
-14.35999981,-3.78321800,-3.47564000,3.96776600,0.00784326
-14.27999980,-3.90625000,-3.78321800,3.93700800,0.00784326
-14.19999980,-3.89087100,-4.04466000,3.92162900,0.00784326
-14.11999980,-3.73708200,-4.22920700,3.92162900,0.00784326
-14.03999980,-3.42950300,-4.36761800,3.93700800,0.00787402
-13.95999980,-3.01427100,-4.44451300,3.93700800,0.00790477
-13.87999980,-2.52214600,-4.49065000,3.95238700,0.00790477
-13.79999980,-1.96850400,-4.49065000,3.95238700,0.00790477
-13.71999980,-1.43024100,-4.45989200,3.95238700,0.00790477
-13.63999980,-0.93811510,-4.36761800,3.93700800,0.00787402
-13.55999980,-0.49212600,-4.24458600,3.92162900,0.00784326
-13.47999979,-0.13841040,-4.04466000,3.92162900,0.00784326
-13.39999979,0.12303150,-3.78321800,3.92162900,0.00784326
-13.31999979,0.30757870,-3.42950300,3.92162900,0.00784326
-13.23999979,0.43061020,-2.99889300,3.93700800,0.00787402
-13.15999979,0.50750490,-2.50676700,3.95238700,0.00790477
-13.07999979,0.53826270,-1.98388300,3.95238700,0.00790477
-12.99999979,0.53826270,-1.43024100,3.95238700,0.00790477
-12.91999979,0.50750490,-0.92273620,3.95238700,0.00787402
-12.83999979,0.43061020,-0.49212600,3.93700800,0.00787402
-12.75999978,0.30757870,-0.18454720,3.92162900,0.00784326
-12.67999978,0.12303150,-0.01537894,3.92162900,0.00784326
-12.59999978,-0.13841040,-0.01537894,3.92162900,0.00787402
-12.51999978,-0.49212600,-0.18454720,3.92162900,0.00793553
-12.43999978,-0.93811510,-0.49212600,3.93700800,0.00805856
-12.35999978,-1.43024100,-0.92273620,3.95238700,0.00821235
-12.27999978,-1.96850400,-1.43024100,3.95238700,0.00836614
-12.19999978,-2.52214600,-1.98388300,3.95238700,0.00851993
-12.11999978,-3.01427100,-2.50676700,3.93700800,0.00858145
-12.03999977,-3.42950300,-3.01427100,3.93700800,0.00855069
-11.95999977,-3.73708200,-3.44488200,3.92162900,0.00839690
-11.87999977,-3.89087100,-3.78321800,3.92162900,0.00805856
-11.79999977,-3.90625000,-4.02928100,3.93700800,0.00756644
-11.71999977,-3.78321800,-4.19845000,3.96776600,0.00688976
-11.63999977,-3.53715500,-4.27534400,4.02928100,0.00602854
-11.55999977,-3.18344000,-4.29072300,4.10617600,0.00501353
-11.47999977,-2.75283000,-4.25996500,4.18307100,0.00396777
-11.39999977,-2.27608300,-4.18307100,4.25996500,0.00286048
-11.31999977,-1.78395700,-4.10617600,4.29072300,0.00184547
-11.23999976,-1.26107300,-4.02928100,4.27534400,0.00098425
-11.15999976,-0.75356790,-3.96776600,4.19845000,0.00036909
-11.07999976,-0.24606300,-3.92162900,4.02928100,0.00003076
-10.99999976,0.24606300,-3.92162900,3.78321800,0.00003076
-10.91999976,0.75356790,-3.96776600,3.44488200,0.00036909
-10.83999976,1.26107300,-4.02928100,3.01427100,0.00098425
-10.75999976,1.78395700,-4.10617600,2.50676700,0.00184547
-10.67999976,2.27608300,-4.18307100,1.98388300,0.00286048
-10.59999976,2.75283000,-4.25996500,1.43024100,0.00396777
-10.51999975,3.18344000,-4.29072300,0.92273620,0.00501353
-10.43999975,3.53715500,-4.27534400,0.49212600,0.00602854
-10.35999975,3.79859700,-4.18307100,0.18454720,0.00688976
-10.27999975,3.92162900,-4.02928100,0.01537894,0.00756644
-10.19999975,3.89087100,-3.79859700,0.01537894,0.00805856
-10.11999975,3.69094500,-3.49101900,0.18454720,0.00839690
-10.03999975,3.33722900,-3.10654500,0.49212600,0.00855069
-9.95999975,2.86048200,-2.67593500,0.92273620,0.00858145
-9.87999975,2.27608300,-2.21456700,1.43024100,0.00851993
-9.79999974,1.67630400,-1.73782000,1.98388300,0.00836614
-9.71999974,1.09190400,-1.26107300,2.50676700,0.00821235
-9.63999974,0.58439960,-0.83046260,3.01427100,0.00805856
-9.55999974,0.21530510,-0.44598910,3.44488200,0.00793553
-9.47999974,0.03075787,-0.12303150,3.78321800,0.00787402
-9.39999974,0.03075787,0.10765260,4.02928100,0.00784326
-9.31999974,0.21530510,0.26144190,4.19845000,0.00784326
-9.23999974,0.58439960,0.33833660,4.27534400,0.00787402
-9.15999974,1.09190400,0.33833660,4.29072300,0.00787402
-9.07999974,1.67630400,0.30757870,4.25996500,0.00790477
-8.99999973,2.27608300,0.23068400,4.18307100,0.00790477
-8.91999973,2.86048200,0.15378940,4.10617600,0.00790477
-8.83999973,3.35260800,0.09227362,4.02928100,0.00787402
-8.75999973,3.70632400,0.03075787,3.96776600,0.00784326
-8.67999973,3.89087100,0.00000000,3.93700800,0.00784326
-8.59999973,3.90625000,0.00000000,3.92162900,0.00784326
-8.51999973,3.75246000,0.03075787,3.92162900,0.00784326
-8.43999973,3.44488200,0.09227362,3.93700800,0.00787402
-8.35999973,3.02965000,0.15378940,3.93700800,0.00790477
-8.27999972,2.52214600,0.23068400,3.95238700,0.00790477
-8.19999972,1.96850400,0.30757870,3.95238700,0.00790477
-8.11999972,1.43024100,0.35371550,3.93700800,0.00790477
-8.03999972,0.93811510,0.33833660,3.93700800,0.00787402
-7.95999972,0.49212600,0.27682080,3.92162900,0.00784326
-7.87999972,0.13841040,0.10765260,3.92162900,0.00784326
-7.79999972,-0.12303150,-0.13841040,3.93700800,0.00784326
-7.71999972,-0.30757870,-0.49212600,3.96776600,0.00784326
-7.63999972,-0.43061020,-0.92273620,4.02928100,0.00787402
-7.55999972,-0.50750490,-1.43024100,4.10617600,0.00790477
-7.47999971,-0.53826270,-1.96850400,4.18307100,0.00790477
-7.39999971,-0.53826270,-2.52214600,4.25996500,0.00790477
-7.31999971,-0.50750490,-3.01427100,4.29072300,0.00787402
-7.23999971,-0.43061020,-3.44488200,4.27534400,0.00787402
-7.15999971,-0.30757870,-3.73708200,4.19845000,0.00784326
-7.07999971,-0.12303150,-3.90625000,4.02928100,0.00784326
-6.99999971,0.13841040,-3.90625000,3.78321800,0.00787402
-6.91999971,0.46136810,-3.73708200,3.44488200,0.00793553
-6.83999971,0.83046260,-3.44488200,3.01427100,0.00805856
-6.75999970,1.27645200,-3.01427100,2.50676700,0.00821235
-6.67999970,1.73782000,-2.52214600,1.98388300,0.00836614
-6.59999970,2.21456700,-1.96850400,1.43024100,0.00851993
-6.51999970,2.67593500,-1.43024100,0.92273620,0.00858145
-6.43999970,3.10654500,-0.92273620,0.49212600,0.00855069
-6.35999970,3.47564000,-0.49212600,0.18454720,0.00839690
-6.27999970,3.78321800,-0.13841040,0.01537894,0.00805856
-6.19999970,4.04466000,0.10765260,0.01537894,0.00756644
-6.11999970,4.22920700,0.27682080,0.18454720,0.00688976
-6.03999969,4.36761800,0.33833660,0.49212600,0.00602854
-5.95999969,4.44451300,0.35371550,0.92273620,0.00501353
-5.87999969,4.49065000,0.30757870,1.43024100,0.00396777
-5.79999969,4.49065000,0.23068400,1.98388300,0.00286048
-5.71999969,4.44451300,0.15378940,2.50676700,0.00184547
-5.63999969,4.36761800,0.09227362,3.01427100,0.00098425
-5.55999969,4.22920700,0.03075787,3.44488200,0.00036909
-5.47999969,4.04466000,0.00000000,3.78321800,0.00003076
-5.39999969,3.78321800,0.00000000,4.02928100,0.00003076
-5.31999969,3.47564000,0.03075787,4.19845000,0.00036909
-5.23999968,3.10654500,0.09227362,4.27534400,0.00098425
-5.15999968,2.67593500,0.15378940,4.29072300,0.00184547
-5.07999968,2.21456700,0.23068400,4.25996500,0.00286048
-4.99999968,1.73782000,0.30757870,4.18307100,0.00396777
-4.91999968,1.26107300,0.33833660,4.10617600,0.00501353
-4.83999968,0.83046260,0.33833660,4.02928100,0.00602854
-4.75999968,0.44598910,0.26144190,3.96776600,0.00688976
-4.67999968,0.12303150,0.10765260,3.93700800,0.00756644
-4.59999968,-0.10765260,-0.12303150,3.92162900,0.00805856
-4.51999967,-0.26144190,-0.44598910,3.92162900,0.00839690
-4.43999967,-0.33833660,-0.83046260,3.93700800,0.00855069
-4.35999967,-0.33833660,-1.26107300,3.93700800,0.00858145
-4.27999967,-0.30757870,-1.73782000,3.95238700,0.00851993
-4.19999967,-0.23068400,-2.21456700,3.95238700,0.00836614
-4.11999967,-0.16916830,-2.67593500,3.95238700,0.00821235
-4.03999967,-0.09227362,-3.10654500,3.93700800,0.00805856
-3.95999967,-0.04613681,-3.47564000,3.93700800,0.00793553
-3.87999967,-0.01537894,-3.78321800,3.92162900,0.00784326
-3.79999966,0.00000000,-4.04466000,3.90625000,0.00784326
-3.71999966,0.01537894,-4.22920700,3.89087100,0.00793553
-3.63999966,0.00000000,-4.36761800,3.84473400,0.00805856
-3.55999966,0.00000000,-4.44451300,3.78321800,0.00821235
-3.47999966,0.00000000,-4.49065000,3.72170300,0.00836614
-3.39999966,0.00000000,-4.49065000,3.64480800,0.00851993
-3.31999966,0.00000000,-4.45989200,3.59867100,0.00858145
-3.23999966,0.00000000,-4.36761800,3.59867100,0.00855069
-3.15999966,0.01537894,-4.24458600,3.66018700,0.00839690
-3.07999966,0.00000000,-4.04466000,3.81397600,0.00805856
-2.99999965,-0.01537894,-3.78321800,4.04466000,0.00756644
-2.91999965,-0.04613681,-3.42950300,4.36761800,0.00688976
-2.83999965,-0.09227362,-2.99889300,4.76747000,0.00602854
-2.75999965,-0.16916830,-2.50676700,5.21345900,0.00501353
-2.67999965,-0.23068400,-1.98388300,5.69020700,0.00396777
-2.59999965,-0.30757870,-1.43024100,6.16695300,0.00286048
-2.51999965,-0.35371550,-0.92273620,6.61294300,0.00184547
-2.43999965,-0.33833660,-0.49212600,7.04355200,0.00098425
-2.35999965,-0.27682080,-0.18454720,7.39726800,0.00036909
-2.27999964,-0.10765260,-0.01537894,7.70484700,0.00003076
-2.19999964,0.13841040,-0.01537894,7.96628900,0.00003076
-2.11999964,0.49212600,-0.18454720,8.16621500,0.00036909
-2.03999964,0.92273620,-0.49212600,8.30462600,0.00098425
-1.95999964,1.43024100,-0.92273620,8.39689900,0.00184547
-1.87999964,1.96850400,-1.43024100,8.44303500,0.00286048
-1.79999964,2.52214600,-1.98388300,8.44303500,0.00396777
-1.71999964,3.01427100,-2.50676700,8.42765700,0.00501353
-1.63999964,3.44488200,-2.99889300,8.38152000,0.00602854
-1.55999963,3.73708200,-3.42950300,8.27386800,0.00688976
-1.47999963,3.90625000,-3.78321800,8.04318300,0.00756644
-1.39999963,3.90625000,-4.04466000,7.59719500,0.00805856
-1.31999963,3.73708200,-4.24458600,6.88976300,0.00839690
-1.23999963,3.44488200,-4.36761800,5.89013200,0.00855069
-1.15999963,3.01427100,-4.45989200,4.67519700,0.00858145
-1.07999963,2.52214600,-4.49065000,3.32185000,0.00851993
-0.99999963,1.96850400,-4.49065000,2.04539800,0.00836614
-0.91999963,1.43024100,-4.45989200,1.23031500,0.00821235
-0.83999963,0.92273620,-4.36761800,1.24569400,0.00805856
-0.75999962,0.47674700,-4.24458600,2.01464100,0.00793553
-0.67999962,0.13841040,-4.04466000,3.24495600,0.00784326
-0.59999962,-0.10765260,-3.78321800,4.56754400,0.00784326
-0.51999962,-0.23068400,-3.42950300,5.59793300,0.00793553
-0.43999962,-0.24606300,-2.99889300,6.05930100,0.00805856
-0.35999962,-0.18454720,-2.50676700,5.99778500,0.00821235
-0.27999962,-0.06151574,-1.98388300,5.79785900,0.00836614
-0.19999962,0.06151574,-1.43024100,6.25922700,0.00851993
-0.11999962,0.16916830,-0.92273620,8.59682500,0.00858145
-0.03999961,0.18454720,-0.49212600,14.27165000,0.00855069
0.04000039,0.12303150,-0.18454720,24.59092000,0.00839690
0.12000039,0.04613681,-0.01537894,40.61577000,0.00805856
0.20000039,-0.03075787,-0.01537894,62.97675000,0.00756644
0.28000039,-0.04613681,-0.18454720,91.64308000,0.00688976
0.36000039,0.03075787,-0.49212600,125.92270000,0.00602854
0.44000039,0.19992620,-0.92273620,164.41620000,0.00501353
0.52000039,0.39985230,-1.43024100,205.10890000,0.00396777
0.60000039,0.52288380,-1.98388300,245.57080000,0.00286048
0.68000039,0.32295760,-2.50676700,283.21850000,0.00184547
0.76000040,-0.41523130,-3.01427100,315.56040000,0.00098425
0.84000040,-1.61478800,-3.44488200,340.48960000,0.00033834
0.92000040,-3.13730300,-3.78321800,356.48370000,0.00003076
1.00000040,-4.69057600,-4.02928100,362.78910000,0.00006152
1.08000040,-6.02854300,-4.19845000,359.43650000,0.00046137
1.16000040,-6.99741600,-4.27534400,347.24100000,0.00116880
1.24000040,-7.59719500,-4.29072300,327.64820000,0.00218381
1.32000040,-8.05856200,-4.25996500,302.54980000,0.00335261
1.40000040,-8.90440500,-4.18307100,273.99110000,0.00455217
1.48000041,-11.08821000,-4.13693400,243.98680000,0.00565945
1.56000041,-15.56348000,-4.12155500,214.29010000,0.00655143
1.64000041,-22.82234000,-4.09079700,186.25430000,0.00716658
1.72000041,-33.03395000,-4.01390200,160.74060000,0.00762795
1.80000041,-46.07529000,-3.78321800,138.08750000,0.00805856
1.88000041,-61.51574000,-3.35260800,118.24860000,0.00855069
1.96000041,-78.77091000,-2.69131400,100.80890000,0.00916585
2.04000041,-97.22563000,-1.83009300,85.21468000,0.00993479
2.12000041,-116.37240000,-0.87659940,70.86613000,0.01073450
2.20000042,-135.93440000,0.00000000,57.30192000,0.01125738
2.28000042,-156.17310000,0.41523130,44.19906000,0.01094980
2.36000042,-177.42680000,0.03075787,31.57295000,0.00935039
2.44000042,-199.81850000,-1.13804100,19.65428000,0.00636688
2.52000042,-223.27140000,-2.90661900,8.81213000,0.00230684
2.60000042,-247.60090000,-4.96739600,-0.55364170,-0.00242987
2.68000042,-272.45320000,-7.02817400,-8.07394100,-0.00741265
2.76000042,-297.35170000,-8.84288800,-13.57960000,-0.01224163
2.84000042,-321.78880000,-10.36540000,-17.11676000,-0.01685531
2.92000042,-345.24170000,-11.87254000,-18.91609000,-0.02146900
3.00000043,-367.32590000,-13.87180000,-19.60814000,-0.02685162
3.08000043,-387.94900000,-17.48585000,-19.83883000,-0.03435655
3.16000043,-407.09580000,-23.80659000,-19.88497000,-0.04555241
3.24000043,-424.56630000,-33.49532000,-19.85421000,-0.06130044
3.32000043,-440.14510000,-46.85962000,-19.73118000,-0.08196973
3.40000043,-453.58630000,-63.83796000,-19.40822000,-0.10746800
3.48000043,-464.65920000,-84.04588000,-18.71617000,-0.13730310
3.56000043,-473.17910000,-106.77600000,-17.50123000,-0.17046010
3.64000043,-479.03850000,-131.22850000,-15.70189000,-0.20583170
3.72000044,-482.22190000,-156.61910000,-13.36430000,-0.24231050
3.80000044,-482.83710000,-182.30190000,-10.71912000,-0.27897390
3.88000044,-481.23770000,-208.12310000,-8.01242500,-0.31542200
3.96000044,-477.79280000,-234.03670000,-5.39800600,-0.35159330
4.04000044,-472.81000000,-259.87330000,-2.99889300,-0.38724160
4.12000044,-466.47390000,-285.46380000,-0.92273620,-0.42215180
4.20000044,-458.90750000,-310.59300000,0.83046260,-0.45620080
4.28000044,-450.11070000,-334.96860000,2.24532500,-0.48914250
4.36000044,-440.03750000,-358.31380000,3.38336600,-0.52057700
4.44000045,-428.59560000,-380.24420000,4.27534400,-0.55007380
4.52000045,-415.73880000,-400.43670000,4.99815400,-0.57698700
4.60000045,-401.35950000,-418.55310000,5.61331200,-0.60070130
4.68000045,-385.54990000,-434.50110000,6.16695300,-0.62057080
4.76000045,-368.72540000,-448.14220000,6.67445900,-0.63601130
4.84000045,-351.37790000,-459.26120000,7.16658400,-0.64634600
4.92000045,-334.06120000,-467.61190000,7.62795300,-0.65102120
5.00000045,-317.22130000,-472.99460000,8.04318300,-0.64969860
5.08000045,-301.18110000,-475.27060000,8.36614100,-0.64225520
5.16000045,-286.06360000,-474.39400000,8.61220400,-0.62890630
5.24000046,-271.74580000,-470.41090000,8.73523500,-0.61017470
5.32000046,-257.96630000,-463.55190000,8.75061400,-0.58686020
5.40000046,-244.12520000,-454.07850000,8.68909800,-0.55988560
5.48000046,-229.68440000,-442.49810000,8.56606700,-0.53045030
5.56000046,-214.65920000,-429.33370000,8.39689900,-0.49972320
5.64000046,-199.28020000,-415.03130000,8.19697300,-0.46875000
5.72000046,-183.97820000,-399.97540000,7.96628900,-0.43839200
5.80000046,-169.22980000,-384.39650000,7.70484700,-0.40917200
5.88000046,-155.45030000,-368.41780000,7.39726800,-0.38127460
5.96000047,-142.88570000,-352.03920000,7.02817400,-0.35466900
6.04000047,-131.59750000,-335.18390000,6.61294300,-0.32904770
6.12000047,-121.41670000,-317.79030000,6.16695300,-0.30413390
6.20000047,-111.71260000,-299.65860000,5.69020700,-0.27931230
6.28000047,-101.93160000,-280.80400000,5.21345900,-0.25430610
6.36000047,-91.93528000,-261.59570000,4.76747000,-0.22951530
6.44000047,-81.76981000,-242.58730000,4.36761800,-0.20546260
6.52000047,-71.63509000,-224.37870000,4.04466000,-0.18300940
6.60000047,-61.83870000,-207.47720000,3.81397600,-0.16283220
6.68000048,-52.65748000,-192.26750000,3.66018700,-0.14551550
6.76000048,-44.29134000,-178.88780000,3.59867100,-0.13127460
6.84000048,-36.87869000,-167.18440000,3.59867100,-0.11998650
6.92000048,-30.38878000,-156.83440000,3.64480800,-0.11112820
7.00000048,-24.51402000,-147.06880000,3.72170300,-0.10359250
7.08000048,-19.00837000,-137.22620000,3.78321800,-0.09636442
7.16000048,-13.90256000,-127.15300000,3.84473400,-0.08904404
7.24000048,-9.31963500,-116.94140000,3.89087100,-0.08156988
7.32000048,-5.49028000,-106.85280000,3.90625000,-0.07415723
7.40000048,-2.61441900,-97.28715000,3.92162900,-0.06720596
7.48000049,-0.87659940,-88.55191000,3.93700800,-0.06108514
7.56000049,-0.30757870,-80.92397000,3.93700800,-0.05610236
7.64000049,-0.86122040,-74.46481000,3.95238700,-0.05234990
7.72000049,-2.32221900,-69.05142000,3.95238700,-0.04979700
7.80000049,-4.29072300,-64.19168000,3.95238700,-0.04789001
7.88000049,-6.36687900,-59.42421000,3.95238700,-0.04607530
7.96000049,-8.30462600,-54.62598000,3.93700800,-0.04422982
8.04000049,-9.96555000,-49.85851000,3.92162900,-0.04226132
8.12000049,-11.25738000,-45.29097000,3.92162900,-0.04023130
8.20000050,-12.19550000,-41.13865000,3.92162900,-0.03823204
8.28000050,-12.81065000,-37.66301000,3.92162900,-0.03638656
8.36000050,-13.22589000,-34.97170000,3.93700800,-0.03481791
8.44000050,-13.50271000,-33.08009000,3.95238700,-0.03355684
8.52000050,-13.73339000,-31.88053000,3.95238700,-0.03266486
8.60000050,-13.93332000,-30.97318000,3.95238700,-0.03198819
8.68000050,-14.14862000,-29.97355000,3.95238700,-0.03140379
8.76000050,-14.44082000,-28.65096000,3.93700800,-0.03100394
8.84000050,-14.84067000,-26.91314000,3.92162900,-0.03088091
8.92000051,-15.37894000,-24.74471000,3.92162900,-0.03109621
9.00000051,-16.04023000,-22.25332000,3.92162900,-0.03180364
9.08000051,-16.79380000,-19.56201000,3.92162900,-0.03300320
9.16000051,-17.63964000,-16.79380000,3.93700800,-0.03475640
9.24000051,-18.50086000,-14.07173000,3.95238700,-0.03694021
9.32000051,-19.34670000,-11.44193000,3.95238700,-0.03937008
9.40000051,-20.17716000,-8.85826700,3.95238700,-0.04183071
9.48000051,-20.94611000,-6.19771100,3.95238700,-0.04401452
9.56000051,-21.68430000,-3.42950300,3.93700800,-0.04570620
9.64000051,-22.42249000,-0.55364170,3.93700800,-0.04678272
9.72000052,-23.16068000,2.41449300,3.92162900,-0.04715182
9.80000052,-23.91425000,5.44414400,3.90625000,-0.04681348
9.88000052,-24.69857000,8.50455100,3.89087100,-0.04579847
9.96000052,-25.49828000,11.51882000,3.84473400,-0.04416831
10.04000052,-26.28260000,14.44082000,3.78321800,-0.04207677
10.12000052,-27.00541000,17.22441000,3.72170300,-0.03964690
10.20000052,-27.62057000,19.80807000,3.64480800,-0.03690945
10.28000052,-28.03580000,22.16105000,3.59867100,-0.03398745
10.36000052,-28.20497000,24.19107000,3.59867100,-0.03097318
10.44000053,-28.11270000,25.83661000,3.66018700,-0.02792815
10.52000053,-27.74360000,27.03617000,3.81397600,-0.02497539
10.60000053,-27.11306000,27.75898000,4.06003900,-0.02214567
10.68000053,-26.26722000,28.00504000,4.41375400,-0.01946973
10.76000053,-25.22145000,27.78974000,4.85974400,-0.01697835
10.84000053,-24.02190000,27.15920000,5.38262700,-0.01464075
10.92000053,-22.66855000,26.17495000,5.92089000,-0.01239542
11.00000053,-21.17680000,24.88312000,6.47453200,-0.01021161
11.08000053,-19.48511000,23.31447000,6.96665800,-0.00802781
11.16000053,-17.54737000,21.46899000,7.38188900,-0.00575172
11.24000054,-15.39431000,19.34670000,7.67408900,-0.00344488
