Time,Channel A,Channel B,Channel C,Channel D
(ns),(mV),(mV),(mV),(V)

-15.30980383,0.00000000,-0.01537894,3.81397600,0.00784326
-15.22980382,-0.01537894,-0.16916830,3.66018700,0.00784326
-15.14980382,0.00000000,-0.49212600,3.59867100,0.00787402
-15.06980382,0.00000000,-0.92273620,3.59867100,0.00790477
-14.98980382,0.00000000,-1.43024100,3.64480800,0.00790477
-14.90980382,0.00000000,-1.98388300,3.72170300,0.00790477
-14.82980382,0.00000000,-2.50676700,3.78321800,0.00790477
-14.74980382,-0.01537894,-3.01427100,3.84473400,0.00787402
-14.66980382,-0.01537894,-3.44488200,3.89087100,0.00784326
-14.58980382,-0.01537894,-3.78321800,3.90625000,0.00784326
-14.50980381,0.01537894,-4.02928100,3.92162900,0.00784326
-14.42980381,0.09227362,-4.19845000,3.93700800,0.00784326
-14.34980381,0.18454720,-4.27534400,3.93700800,0.00787402
-14.26980381,0.32295760,-4.29072300,3.95238700,0.00790477
-14.18980381,0.47674700,-4.25996500,3.95238700,0.00790477
-14.10980381,0.61515740,-4.18307100,3.95238700,0.00790477
-14.02980381,0.69205210,-4.10617600,3.95238700,0.00790477
-13.94980381,0.67667320,-4.02928100,3.93700800,0.00787402
-13.86980381,0.53826270,-3.96776600,3.92162900,0.00784326
-13.78980380,0.23068400,-3.93700800,3.92162900,0.00784326
-13.70980380,-0.27682080,-3.92162900,3.92162900,0.00784326
-13.62980380,-0.96887300,-3.92162900,3.92162900,0.00784326
-13.54980380,-1.84547200,-3.93700800,3.93700800,0.00787402
-13.46980380,-2.86048200,-3.93700800,3.95238700,0.00790477
-13.38980380,-3.95238700,-3.95238700,3.95238700,0.00790477
-13.30980380,-5.04429100,-3.95238700,3.95238700,0.00790477
-13.22980380,-6.04392200,-3.95238700,3.95238700,0.00790477
-13.14980380,-6.88976300,-3.93700800,3.93700800,0.00787402
-13.06980380,-7.48954200,-3.92162900,3.92162900,0.00784326
-12.98980379,-7.79712100,-3.92162900,3.92162900,0.00784326
-12.90980379,-7.79712100,-3.92162900,3.92162900,0.00784326
-12.82980379,-7.48954200,-3.92162900,3.92162900,0.00784326
-12.74980379,-6.88976300,-3.93700800,3.93700800,0.00787402
-12.66980379,-6.04392200,-3.95238700,3.95238700,0.00790477
-12.58980379,-5.04429100,-3.95238700,3.95238700,0.00790477
-12.50980379,-3.95238700,-3.95238700,3.95238700,0.00790477
-12.42980379,-2.86048200,-3.93700800,3.95238700,0.00787402
-12.34980379,-1.84547200,-3.93700800,3.93700800,0.00787402
-12.26980378,-0.96887300,-3.92162900,3.92162900,0.00784326
-12.18980378,-0.27682080,-3.92162900,3.92162900,0.00784326
-12.10980378,0.23068400,-3.93700800,3.92162900,0.00787402
-12.02980378,0.53826270,-3.96776600,3.92162900,0.00793553
-11.94980378,0.67667320,-4.02928100,3.93700800,0.00805856
-11.86980378,0.69205210,-4.10617600,3.95238700,0.00821235
-11.78980378,0.61515740,-4.18307100,3.95238700,0.00836614
-11.70980378,0.47674700,-4.25996500,3.95238700,0.00851993
-11.62980378,0.32295760,-4.29072300,3.95238700,0.00858145
-11.54980377,0.18454720,-4.27534400,3.93700800,0.00855069
-11.46980377,0.07689468,-4.19845000,3.92162900,0.00839690
-11.38980377,0.01537894,-4.02928100,3.92162900,0.00805856
-11.30980377,0.00000000,-3.78321800,3.92162900,0.00756644
-11.22980377,0.03075787,-3.44488200,3.92162900,0.00688976
-11.14980377,0.07689468,-3.01427100,3.93700800,0.00602854
-11.06980377,0.15378940,-2.50676700,3.95238700,0.00501353
-10.98980377,0.23068400,-1.98388300,3.95238700,0.00396777
-10.90980377,0.30757870,-1.43024100,3.95238700,0.00286048
-10.82980377,0.35371550,-0.92273620,3.95238700,0.00184547
-10.74980376,0.33833660,-0.47674700,3.93700800,0.00098425
-10.66980376,0.27682080,-0.16916830,3.92162900,0.00036909
-10.58980376,0.10765260,-0.01537894,3.92162900,0.00003076
-10.50980376,-0.13841040,-0.04613681,3.92162900,0.00003076
-10.42980376,-0.49212600,-0.27682080,3.92162900,0.00036909
-10.34980376,-0.92273620,-0.69205210,3.93700800,0.00098425
-10.26980376,-1.43024100,-1.24569400,3.95238700,0.00184547
-10.18980376,-1.96850400,-1.90698800,3.95238700,0.00286048
-10.10980376,-2.52214600,-2.58366100,3.95238700,0.00396777
-10.02980375,-3.01427100,-3.21419800,3.95238700,0.00501353
-9.94980375,-3.44488200,-3.69094500,3.93700800,0.00602854
-9.86980375,-3.73708200,-3.98314500,3.92162900,0.00688976
-9.78980375,-3.90625000,-4.01390200,3.92162900,0.00756644
-9.70980375,-3.90625000,-3.76783900,3.92162900,0.00805856
-9.62980375,-3.73708200,-3.22957700,3.92162900,0.00839690
-9.54980375,-3.44488200,-2.42987200,3.93700800,0.00855069
-9.46980375,-3.01427100,-1.43024100,3.95238700,0.00858145
-9.38980375,-2.52214600,-0.30757870,3.95238700,0.00851993
-9.30980374,-1.96850400,0.84584150,3.95238700,0.00836614
-9.22980374,-1.43024100,1.93774600,3.95238700,0.00821235
-9.14980374,-0.92273620,2.86048200,3.93700800,0.00805856
-9.06980374,-0.49212600,3.52177600,3.92162900,0.00793553
-8.98980374,-0.13841040,3.87549200,3.92162900,0.00787402
-8.90980374,0.10765260,3.87549200,3.92162900,0.00784326
-8.82980374,0.27682080,3.52177600,3.92162900,0.00784326
-8.74980374,0.33833660,2.86048200,3.93700800,0.00787402
-8.66980374,0.35371550,1.93774600,3.95238700,0.00787402
-8.58980374,0.30757870,0.84584150,3.95238700,0.00790477
-8.50980373,0.23068400,-0.30757870,3.95238700,0.00790477
-8.42980373,0.16916830,-1.43024100,3.95238700,0.00787402
-8.34980373,0.09227362,-2.42987200,3.93700800,0.00787402
-8.26980373,0.04613681,-3.22957700,3.92162900,0.00784326
-8.18980373,0.01537894,-3.76783900,3.92162900,0.00784326
-8.10980373,0.00000000,-3.99852300,3.92162900,0.00787402
-8.02980373,-0.01537894,-3.93700800,3.92162900,0.00793553
-7.94980373,0.00000000,-3.59867100,3.93700800,0.00805856
-7.86980373,0.00000000,-3.04502900,3.95238700,0.00821235
-7.78980372,0.00000000,-2.35297700,3.95238700,0.00836614
-7.70980372,0.00000000,-1.59940900,3.95238700,0.00851993
-7.62980372,0.00000000,-0.90735720,3.93700800,0.00858145
-7.54980372,0.00000000,-0.33833660,3.93700800,0.00855069
-7.46980372,-0.01537894,0.00000000,3.92162900,0.00836614
-7.38980372,0.00000000,0.07689468,3.92162900,0.00805856
-7.30980372,0.01537894,-0.15378940,3.93700800,0.00759720
-7.22980372,0.04613681,-0.64591530,3.96776600,0.00698204
-7.14980372,0.09227362,-1.41486200,4.02928100,0.00621309
-7.06980372,0.16916830,-2.35297700,4.10617600,0.00535187
-6.98980371,0.23068400,-3.41412400,4.18307100,0.00442913
-6.90980371,0.30757870,-4.49065000,4.25996500,0.00347564
-6.82980371,0.33833660,-5.53641700,4.29072300,0.00255290
-6.74980371,0.33833660,-6.44377400,4.27534400,0.00166093
-6.66980371,0.26144190,-7.18196300,4.19845000,0.00092274
-6.58980371,0.10765260,-7.67408900,4.02928100,0.00027682
-6.50980371,-0.12303150,-7.95091000,3.78321800,-0.00024606
-6.42980371,-0.44598910,-7.98166800,3.44488200,-0.00061516
-6.34980371,-0.83046260,-7.81250000,3.01427100,-0.00086122
-6.26980370,-1.26107300,-7.47416300,2.50676700,-0.00101501
-6.18980370,-1.73782000,-7.01279500,1.98388300,-0.00107653
-6.10980370,-2.21456700,-6.47453200,1.43024100,-0.00107653
-6.02980370,-2.67593500,-5.89013200,0.92273620,-0.00101501
-5.94980370,-3.10654500,-5.30573300,0.49212600,-0.00086122
-5.86980370,-3.47564000,-4.72133400,0.18454720,-0.00061516
-5.78980370,-3.78321800,-4.18307100,0.01537894,-0.00024606
-5.70980370,-4.04466000,-3.66018700,0.01537894,0.00027682
-5.62980370,-4.22920700,-3.16806100,0.18454720,0.00092274
-5.54980369,-4.36761800,-2.66055600,0.49212600,0.00166093
-5.46980369,-4.44451300,-2.16843000,0.92273620,0.00255290
-5.38980369,-4.49065000,-1.67630400,1.43024100,0.00347564
-5.30980369,-4.49065000,-1.19955700,1.98388300,0.00442913
-5.22980369,-4.44451300,-0.75356790,2.50676700,0.00535187
-5.14980369,-4.36761800,-0.39985230,3.01427100,0.00621309
-5.06980369,-4.22920700,-0.13841040,3.44488200,0.00695128
-4.98980369,-4.04466000,0.00000000,3.78321800,0.00756644
-4.90980369,-3.78321800,-0.03075787,4.02928100,0.00808932
-4.82980369,-3.47564000,-0.23068400,4.19845000,0.00845842
-4.74980368,-3.10654500,-0.59977850,4.27534400,0.00873524
-4.66980368,-2.67593500,-1.09190400,4.29072300,0.00888903
-4.58980368,-2.21456700,-1.67630400,4.25996500,0.00898130
-4.50980368,-1.73782000,-2.27608300,4.18307100,0.00898130
-4.42980368,-1.26107300,-2.86048200,4.10617600,0.00891978
-4.34980368,-0.83046260,-3.35260800,4.02928100,0.00873524
-4.26980368,-0.43061020,-3.70632400,3.96776600,0.00848917
-4.18980368,-0.12303150,-3.89087100,3.93700800,0.00808932
-4.10980368,0.09227362,-3.89087100,3.92162900,0.00756644
-4.02980367,0.21530510,-3.70632400,3.92162900,0.00685901
-3.94980367,0.24606300,-3.35260800,3.93700800,0.00599779
-3.86980367,0.18454720,-2.86048200,3.93700800,0.00501353
-3.78980367,0.06151574,-2.27608300,3.95238700,0.00396777
-3.70980367,-0.06151574,-1.67630400,3.95238700,0.00286048
-3.62980367,-0.18454720,-1.09190400,3.95238700,0.00184547
-3.54980367,-0.24606300,-0.58439960,3.93700800,0.00098425
-3.46980367,-0.23068400,-0.23068400,3.92162900,0.00036909
-3.38980367,-0.10765260,-0.03075787,3.92162900,0.00003076
-3.30980366,0.13841040,-0.01537894,3.92162900,0.00003076
-3.22980366,0.47674700,-0.16916830,3.92162900,0.00036909
-3.14980366,0.92273620,-0.49212600,3.93700800,0.00098425
-3.06980366,1.43024100,-0.92273620,3.95238700,0.00184547
-2.98980366,1.96850400,-1.43024100,3.95238700,0.00286048
-2.90980366,2.52214600,-1.98388300,3.95238700,0.00396777
-2.82980366,3.01427100,-2.52214600,3.95238700,0.00501353
-2.74980366,3.44488200,-3.01427100,3.93700800,0.00602854
-2.66980366,3.73708200,-3.44488200,3.92162900,0.00688976
-2.58980366,3.90625000,-3.78321800,3.92162900,0.00756644
-2.50980365,3.90625000,-4.02928100,3.92162900,0.00805856
-2.42980365,3.73708200,-4.15231300,3.92162900,0.00839690
-2.34980365,3.44488200,-4.18307100,3.93700800,0.00855069
-2.26980365,3.01427100,-4.13693400,3.95238700,0.00858145
-2.18980365,2.52214600,-4.01390200,3.95238700,0.00851993
-2.10980365,1.96850400,-3.89087100,3.95238700,0.00836614
-2.02980365,1.43024100,-3.76783900,3.95238700,0.00821235
-1.94980365,0.92273620,-3.69094500,3.95238700,0.00805856
-1.86980365,0.49212600,-3.70632400,3.95238700,0.00793553
-1.78980364,0.13841040,-3.81397600,3.93700800,0.00787402
-1.70980364,-0.10765260,-4.06003900,3.90625000,0.00784326
-1.62980364,-0.27682080,-4.39837600,3.84473400,0.00784326
-1.54980364,-0.33833660,-4.85974400,3.75246000,0.00787402
-1.46980364,-0.35371550,-5.36724900,3.61405000,0.00787402
-1.38980364,-0.30757870,-5.92089000,3.47564000,0.00790477
-1.30980364,-0.23068400,-6.47453200,3.33722900,0.00790477
-1.22980364,-0.16916830,-6.96665800,3.35260800,0.00790477
-1.14980364,-0.09227362,-7.38188900,3.59867100,0.00787402
-1.06980363,-0.04613681,-7.67408900,3.89087100,0.00784326
-0.98980363,-0.01537894,-7.82787800,4.01390200,0.00784326
-0.90980363,0.00000000,-7.82787800,3.67556500,0.00784326
-0.82980363,0.01537894,-7.67408900,2.61441900,0.00784326
-0.74980363,0.00000000,-7.38188900,0.75356790,0.00787402
-0.66980363,0.00000000,-6.96665800,-1.79933500,0.00790477
-0.58980363,0.00000000,-6.47453200,-4.64443900,0.00790477
-0.50980363,0.00000000,-5.92089000,-7.13582600,0.00790477
-0.42980363,-0.01537894,-5.36724900,-8.28924700,0.00790477
-0.34980363,-0.03075787,-4.85974400,-7.04355200,0.00787402
-0.26980362,-0.04613681,-4.39837600,-2.52214600,0.00784326
-0.18980362,-0.03075787,-4.06003900,5.95164800,0.00784326
-0.10980362,0.04613681,-3.81397600,18.65465000,0.00784326
-0.02980362,0.16916830,-3.70632400,35.54072000,0.00784326
0.05019638,0.38447340,-3.69094500,56.05622000,0.00787402
0.13019638,0.64591530,-3.76783900,79.33994000,0.00790477
0.21019638,0.95349410,-3.89087100,104.17690000,0.00790477
0.29019638,1.21493600,-4.01390200,129.21380000,0.00790477
0.37019638,1.30720900,-4.13693400,153.06660000,0.00790477
0.45019639,1.12266200,-4.18307100,174.50480000,0.00787402
0.53019639,0.72281000,-4.15231300,192.52890000,0.00784326
0.61019639,0.23068400,-4.02928100,206.47760000,0.00784326
0.69019639,-0.18454720,-3.78321800,216.04330000,0.00784326
0.77019639,-0.35371550,-3.44488200,221.31830000,0.00784326
0.85019639,-0.18454720,-3.01427100,222.65620000,0.00787402
0.93019639,0.27682080,-2.52214600,220.61080000,0.00790477
1.01019639,0.86122040,-1.98388300,215.81260000,0.00790477
1.09019639,1.18417800,-1.43024100,208.87670000,0.00790477
1.17019639,0.53826270,-0.93811510,200.29530000,0.00787402
1.25019640,-1.75319900,-0.52288380,190.40660000,0.00781250
1.33019640,-5.95164800,-0.23068400,179.39530000,0.00775098
1.41019640,-12.01095000,-0.04613681,167.29210000,0.00778174
1.49019640,-19.73118000,0.03075787,154.05080000,0.00793553
1.57019640,-28.69709000,0.03075787,139.61000000,0.00827387
1.65019640,-38.50886000,-0.01537894,123.96960000,0.00882751
1.73019640,-48.79736000,-0.10765260,107.25270000,0.00950418
1.81019640,-59.45497000,-0.24606300,89.75147000,0.01027313
1.89019640,-70.66621000,-0.46136810,71.91190000,0.01094980
1.97019641,-83.10777000,-0.87659940,54.31840000,0.01119587
2.05019641,-97.62549000,-1.63016700,37.61687000,0.01073450
2.13019641,-114.63460000,-2.56828200,22.48400000,0.00971949
2.21019641,-134.30420000,-3.52177600,9.48880400,0.00845842
2.29019641,-156.55760000,-4.22920700,-0.98425190,0.00732037
2.37019641,-180.99470000,-4.47527100,-8.76599300,0.00670522
2.45019641,-207.00050000,-4.15231300,-13.93332000,0.00679749
2.53019641,-233.85210000,-3.32185000,-16.79380000,0.00753568
2.61019641,-260.78060000,-2.29146100,-17.85494000,0.00851993
2.69019642,-287.15550000,-1.56865100,-17.80881000,0.00888903
2.77019642,-312.68450000,-2.10691400,-17.30130000,0.00713583
2.85019642,-337.24470000,-4.82898600,-16.73228000,0.00178396
2.93019642,-360.49760000,-10.21161000,-16.24016000,-0.00796629
3.01019642,-382.13580000,-18.40859000,-15.87106000,-0.02242249
3.09019642,-401.83620000,-29.28149000,-15.48659000,-0.04140010
3.17019642,-419.35280000,-42.44586000,-14.88681000,-0.06428396
3.25019642,-434.45500000,-57.33267000,-13.93332000,-0.09015132
3.33019642,-447.03490000,-73.38828000,-12.51845000,-0.11811020
3.41019642,-457.03120000,-90.18208000,-10.61147000,-0.14733020
3.49019643,-464.55150000,-107.49880000,-8.44303500,-0.17731910
3.57019643,-469.85720000,-125.66130000,-6.22846900,-0.20832310
3.65019643,-473.31750000,-145.08490000,-4.13693400,-0.24077260
3.73019643,-475.07070000,-165.96950000,-2.26070400,-0.27491390
3.81019643,-475.17840000,-188.33040000,-0.67667320,-0.31083910
3.89019643,-473.60970000,-212.06020000,0.58439960,-0.34851750
3.97019643,-470.27250000,-236.85100000,1.53789400,-0.38758000
4.05019643,-465.05900000,-262.22620000,2.19918800,-0.42741140
4.13019643,-457.84630000,-287.58610000,2.66055600,-0.46711980
4.21019644,-448.64970000,-312.34620000,2.95275600,-0.50565950
4.29019644,-437.48460000,-335.90670000,3.16806100,-0.54189220
4.37019644,-424.58170000,-357.99090000,3.32185000,-0.57480320
4.45019644,-410.41770000,-378.35260000,3.49101900,-0.60350020
4.53019644,-395.46930000,-396.66890000,3.66018700,-0.62703000
4.61019644,-380.22880000,-412.64760000,3.82935500,-0.64468500
4.69019644,-365.08060000,-426.07340000,3.99852300,-0.65594240
4.77019644,-350.22450000,-436.79250000,4.15231300,-0.66067910
4.85019644,-335.75290000,-444.69730000,4.24458600,-0.65904900
4.93019645,-321.54280000,-449.77240000,4.27534400,-0.65157480
5.01019645,-307.34800000,-452.07920000,4.25996500,-0.63896410
5.09019645,-292.67650000,-451.74090000,4.18307100,-0.62210880
5.17019645,-277.17460000,-449.01880000,4.10617600,-0.60196230
5.25019645,-260.94980000,-444.14370000,4.02928100,-0.57950910
5.33019645,-244.30980000,-437.31540000,3.96776600,-0.55551800
5.41019645,-227.74670000,-428.64170000,3.93700800,-0.53051180
5.49019645,-211.75260000,-418.15330000,3.92162900,-0.50482900
5.57019645,-196.74270000,-405.89620000,3.92162900,-0.47856180
5.65019645,-182.94780000,-391.88600000,3.93700800,-0.45167940
5.73019646,-170.38320000,-376.19950000,3.93700800,-0.42408960
5.81019646,-158.81830000,-358.95970000,3.95238700,-0.39570000
5.89019646,-147.62240000,-340.28970000,3.95238700,-0.36638780
5.97019646,-136.18050000,-320.51240000,3.95238700,-0.33630660
6.05019646,-124.36950000,-300.18150000,3.93700800,-0.30607160
6.13019646,-112.25090000,-279.94270000,3.92162900,-0.27651330
6.21019646,-100.11690000,-260.39610000,3.92162900,-0.24852360
6.29019646,-88.29047000,-242.01830000,3.92162900,-0.22284080
6.37019646,-77.10999000,-225.10150000,3.92162900,-0.19998770
6.45019647,-66.83685000,-209.72250000,3.93700800,-0.18017960
6.53019647,-57.59412000,-195.71230000,3.95238700,-0.16320130
6.61019647,-49.33562000,-182.74790000,3.95238700,-0.14856050
6.69019647,-41.69230000,-170.19870000,3.95238700,-0.13515010
6.77019647,-34.32578000,-157.52640000,3.95238700,-0.12210880
6.85019647,-27.25147000,-144.70040000,3.93700800,-0.10912890
6.93019647,-20.56164000,-131.95130000,3.92162900,-0.09636442
7.01019647,-14.50234000,-119.61740000,3.92162900,-0.08418430
7.09019647,-9.27349900,-108.14470000,3.92162900,-0.07304995
7.17019648,-5.07504900,-97.87155000,3.92162900,-0.06351501
7.25019648,-1.99926200,-89.05943000,3.93700800,-0.05579478
7.33019648,-0.04613681,-81.69291000,3.95238700,-0.05004306
7.41019648,0.92273620,-75.60284000,3.95238700,-0.04601378
7.49019648,1.27645200,-70.20484000,3.95238700,-0.04299951
7.57019648,1.32258800,-64.94524000,3.95238700,-0.04029281
7.65019648,1.16879900,-59.67027000,3.93700800,-0.03764764
7.73019648,0.86122040,-54.42606000,3.92162900,-0.03503322
7.81019648,0.35371550,-49.41252000,3.92162900,-0.03254183
7.89019648,-0.43061020,-44.87574000,3.92162900,-0.03032726
7.97019649,-1.59940900,-41.07714000,3.92162900,-0.02869710
8.05019649,-3.18344000,-38.17052000,3.93700800,-0.02771284
8.13019649,-5.18270100,-36.18664000,3.95238700,-0.02749754
8.21019649,-7.53567900,-34.98708000,3.95238700,-0.02795891
8.29019649,-10.05782000,-34.15662000,3.95238700,-0.02878937
8.37019649,-12.56459000,-33.24926000,3.95238700,-0.02961983
8.45019649,-14.93295000,-32.06508000,3.93700800,-0.03035802
8.53019649,-17.05524000,-30.48105000,3.92162900,-0.03091166
8.61019649,-18.85458000,-28.54330000,3.92162900,-0.03125000
8.69019650,-20.26944000,-26.32874000,3.92162900,-0.03146530
8.77019650,-21.28445000,-23.99114000,3.92162900,-0.03152682
8.85019650,-21.93036000,-21.66892000,3.93700800,-0.03155758
8.93019650,-22.23794000,-19.45435000,3.95238700,-0.03158834
9.01019650,-22.31484000,-17.37820000,3.95238700,-0.03161909
9.09019650,-22.25332000,-15.33280000,3.95238700,-0.03161909
9.17019650,-22.17643000,-13.14899000,3.95238700,-0.03155758
9.25019650,-22.23794000,-10.78063000,3.93700800,-0.03146530
9.33019650,-22.51476000,-8.19697300,3.92162900,-0.03137303
9.41019651,-23.11454000,-5.39800600,3.92162900,-0.03134227
9.49019651,-24.03728000,-2.41449300,3.92162900,-0.03143455
9.57019651,-25.28297000,0.66129420,3.92162900,-0.03168061
9.65019651,-26.79011000,3.76783900,3.93700800,-0.03204970
9.73019651,-28.46641000,6.82824800,3.95238700,-0.03254183
9.81019651,-30.17347000,9.79638200,3.95238700,-0.03303396
9.89019651,-31.80364000,12.65686000,3.95238700,-0.03343381
9.97019651,-33.23388000,15.40969000,3.95238700,-0.03361836
10.05019651,-34.34117000,17.97798000,3.93700800,-0.03346457
10.13019651,-35.04860000,20.36171000,3.92162900,-0.03294168
10.21019652,-35.32542000,22.53014000,3.92162900,-0.03201895
10.29019652,-35.17163000,24.48326000,3.92162900,-0.03066560
10.37019652,-34.60261000,26.20571000,3.92162900,-0.02894316
10.45019652,-33.67987000,27.71284000,3.93700800,-0.02688238
10.53019652,-32.43417000,28.95854000,3.95238700,-0.02460630
10.61019652,-30.95780000,29.94279000,3.95238700,-0.02214567
10.69019652,-29.25074000,30.63484000,3.95238700,-0.01956201
10.77019652,-27.34375000,30.92704000,3.95238700,-0.01688607
10.85019652,-25.26759000,30.71173000,3.93700800,-0.01417938
10.93019653,-23.06841000,29.92741000,3.92162900,-0.01153420
11.01019653,-20.77694000,28.45103000,3.92162900,-0.00904282
11.09019653,-18.43934000,26.28260000,3.92162900,-0.00670522
11.17019653,-16.11712000,23.42212000,3.92162900,-0.00461368
11.25019653,-13.81028000,19.91572000,3.93700800,-0.00273745
11.33019653,-11.54958000,15.91720000,3.95238700,-0.00107653
11.41019653,-9.30425600,11.53420000,3.95238700,0.00039985
11.49019653,-7.04355200,6.98203700,3.95238700,0.00175320
11.57019653,-4.73671200,2.38373500,3.95238700,0.00310655
11.65019653,-2.33759800,-2.07615600,3.93700800,0.00445989
