Time,Channel A,Channel B,Channel C,Channel D
(ns),(mV),(mV),(mV),(V)

-15.21012683,4.01390200,-4.04466000,3.92162900,0.00000000
-15.13012682,4.01390200,-4.22920700,3.92162900,-0.00006152
-15.05012682,3.78321800,-4.36761800,3.93700800,-0.00018455
-14.97012682,3.36798700,-4.44451300,3.93700800,-0.00030758
-14.89012682,2.82972400,-4.49065000,3.95238700,-0.00046137
-14.81012682,2.21456700,-4.49065000,3.95238700,-0.00061516
-14.73012682,1.59940900,-4.44451300,3.95238700,-0.00067667
-14.65012682,1.01501000,-4.36761800,3.93700800,-0.00067667
-14.57012682,0.53826270,-4.22920700,3.92162900,-0.00052288
-14.49012682,0.15378940,-4.04466000,3.92162900,-0.00021531
-14.41012681,-0.12303150,-3.78321800,3.92162900,0.00024606
-14.33012681,-0.27682080,-3.47564000,3.92162900,0.00089198
-14.25012681,-0.35371550,-3.10654500,3.93700800,0.00166093
-14.17012681,-0.35371550,-2.67593500,3.95238700,0.00252215
-14.09012681,-0.30757870,-2.21456700,3.95238700,0.00347564
-14.01012681,-0.23068400,-1.73782000,3.95238700,0.00442913
-13.93012681,-0.15378940,-1.26107300,3.95238700,0.00535187
-13.85012681,-0.09227362,-0.83046260,3.93700800,0.00621309
-13.77012681,-0.03075787,-0.44598910,3.92162900,0.00695128
-13.69012680,0.00000000,-0.12303150,3.92162900,0.00756644
-13.61012680,0.00000000,0.10765260,3.92162900,0.00808932
-13.53012680,-0.03075787,0.26144190,3.92162900,0.00845842
-13.45012680,-0.09227362,0.33833660,3.93700800,0.00873524
-13.37012680,-0.15378940,0.33833660,3.95238700,0.00888903
-13.29012680,-0.23068400,0.30757870,3.95238700,0.00898130
-13.21012680,-0.30757870,0.23068400,3.95238700,0.00898130
-13.13012680,-0.35371550,0.15378940,3.93700800,0.00891978
-13.05012680,-0.33833660,0.07689468,3.93700800,0.00873524
-12.97012680,-0.27682080,0.03075787,3.92162900,0.00848917
-12.89012679,-0.10765260,0.00000000,3.92162900,0.00808932
-12.81012679,0.13841040,0.01537894,3.93700800,0.00756644
-12.73012679,0.49212600,0.07689468,3.96776600,0.00685901
-12.65012679,0.92273620,0.18454720,4.02928100,0.00599779
-12.57012679,1.43024100,0.32295760,4.10617600,0.00501353
-12.49012679,1.96850400,0.47674700,4.18307100,0.00396777
-12.41012679,2.52214600,0.61515740,4.25996500,0.00286048
-12.33012679,3.01427100,0.69205210,4.29072300,0.00184547
-12.25012679,3.44488200,0.67667320,4.27534400,0.00098425
-12.17012678,3.73708200,0.53826270,4.19845000,0.00036909
-12.09012678,3.90625000,0.21530510,4.02928100,0.00003076
-12.01012678,3.90625000,-0.26144190,3.78321800,0.00003076
-11.93012678,3.73708200,-0.93811510,3.44488200,0.00036909
-11.85012678,3.44488200,-1.75319900,3.01427100,0.00098425
-11.77012678,3.01427100,-2.70669300,2.50676700,0.00184547
-11.69012678,2.52214600,-3.70632400,1.98388300,0.00286048
-11.61012678,1.96850400,-4.73671200,1.43024100,0.00396777
-11.53012678,1.43024100,-5.69020700,0.92273620,0.00501353
-11.45012677,0.92273620,-6.53604800,0.49212600,0.00602854
-11.37012677,0.47674700,-7.21272100,0.18454720,0.00688976
-11.29012677,0.13841040,-7.68946800,0.01537894,0.00756644
-11.21012677,-0.10765260,-7.93553100,0.01537894,0.00805856
-11.13012677,-0.23068400,-7.98166800,0.18454720,0.00839690
-11.05012677,-0.24606300,-7.81250000,0.49212600,0.00855069
-10.97012677,-0.18454720,-7.47416300,0.92273620,0.00858145
-10.89012677,-0.06151574,-7.01279500,1.43024100,0.00851993
-10.81012677,0.06151574,-6.47453200,1.98388300,0.00836614
-10.73012677,0.18454720,-5.89013200,2.50676700,0.00821235
-10.65012676,0.24606300,-5.30573300,3.01427100,0.00805856
-10.57012676,0.23068400,-4.72133400,3.44488200,0.00793553
-10.49012676,0.10765260,-4.18307100,3.78321800,0.00784326
-10.41012676,-0.13841040,-3.66018700,4.02928100,0.00784326
-10.33012676,-0.47674700,-3.16806100,4.19845000,0.00793553
-10.25012676,-0.92273620,-2.66055600,4.27534400,0.00805856
-10.17012676,-1.43024100,-2.16843000,4.29072300,0.00821235
-10.09012676,-1.96850400,-1.67630400,4.25996500,0.00836614
-10.01012676,-2.52214600,-1.19955700,4.18307100,0.00851993
-9.93012675,-3.01427100,-0.76894680,4.10617600,0.00858145
-9.85012675,-3.44488200,-0.39985230,4.02928100,0.00855069
-9.77012675,-3.73708200,-0.13841040,3.96776600,0.00839690
-9.69012675,-3.90625000,-0.01537894,3.93700800,0.00805856
-9.61012675,-3.90625000,-0.03075787,3.92162900,0.00756644
-9.53012675,-3.73708200,-0.19992620,3.92162900,0.00688976
-9.45012675,-3.44488200,-0.50750490,3.93700800,0.00602854
-9.37012675,-3.01427100,-0.92273620,3.93700800,0.00501353
-9.29012675,-2.52214600,-1.43024100,3.95238700,0.00396777
-9.21012674,-1.96850400,-1.98388300,3.95238700,0.00286048
-9.13012674,-1.43024100,-2.50676700,3.95238700,0.00184547
-9.05012674,-0.92273620,-2.99889300,3.93700800,0.00098425
-8.97012674,-0.47674700,-3.42950300,3.92162900,0.00033834
-8.89012674,-0.13841040,-3.78321800,3.92162900,0.00003076
-8.81012674,0.10765260,-4.04466000,3.92162900,0.00006152
-8.73012674,0.23068400,-4.24458600,3.92162900,0.00046137
-8.65012674,0.24606300,-4.36761800,3.93700800,0.00116880
-8.57012674,0.18454720,-4.45989200,3.95238700,0.00218381
-8.49012674,0.06151574,-4.49065000,3.95238700,0.00335261
-8.41012673,-0.06151574,-4.49065000,3.95238700,0.00455217
-8.33012673,-0.18454720,-4.44451300,3.95238700,0.00572097
-8.25012673,-0.24606300,-4.36761800,3.93700800,0.00670522
-8.17012673,-0.23068400,-4.22920700,3.92162900,0.00741265
-8.09012673,-0.10765260,-4.04466000,3.92162900,0.00778174
-8.01012673,0.13841040,-3.78321800,3.92162900,0.00778174
-7.93012673,0.47674700,-3.47564000,3.92162900,0.00741265
-7.85012673,0.92273620,-3.10654500,3.93700800,0.00670522
-7.77012673,1.43024100,-2.67593500,3.95238700,0.00572097
-7.69012672,1.96850400,-2.21456700,3.95238700,0.00455217
-7.61012672,2.52214600,-1.73782000,3.95238700,0.00335261
-7.53012672,3.02965000,-1.26107300,3.95238700,0.00218381
-7.45012672,3.44488200,-0.83046260,3.93700800,0.00116880
-7.37012672,3.75246000,-0.44598910,3.92162900,0.00043061
-7.29012672,3.90625000,-0.12303150,3.92162900,0.00006152
-7.21012672,3.89087100,0.10765260,3.92162900,0.00006152
-7.13012672,3.70632400,0.26144190,3.92162900,0.00043061
-7.05012672,3.35260800,0.33833660,3.93700800,0.00116880
-6.97012672,2.86048200,0.33833660,3.95238700,0.00218381
-6.89012671,2.27608300,0.30757870,3.95238700,0.00335261
-6.81012671,1.67630400,0.23068400,3.95238700,0.00455217
-6.73012671,1.07652500,0.16916830,3.95238700,0.00572097
-6.65012671,0.58439960,0.09227362,3.93700800,0.00670522
-6.57012671,0.21530510,0.04613681,3.92162900,0.00741265
-6.49012671,0.01537894,0.01537894,3.92162900,0.00778174
-6.41012671,0.03075787,0.00000000,3.92162900,0.00778174
-6.33012671,0.26144190,-0.01537894,3.92162900,0.00741265
-6.25012671,0.67667320,0.00000000,3.93700800,0.00670522
-6.17012670,1.24569400,0.00000000,3.95238700,0.00572097
-6.09012670,1.90698800,0.00000000,3.95238700,0.00455217
-6.01012670,2.58366100,0.00000000,3.95238700,0.00335261
-5.93012670,3.19881900,0.00000000,3.93700800,0.00218381
-5.85012670,3.69094500,0.00000000,3.93700800,0.00116880
-5.77012670,3.96776600,0.00000000,3.92162900,0.00046137
-5.69012670,3.99852300,0.00000000,3.92162900,0.00006152
-5.61012670,3.76783900,0.00000000,3.93700800,0.00003076
-5.53012670,3.26033400,0.00000000,3.96776600,0.00033834
-5.45012669,2.52214600,0.00000000,4.02928100,0.00098425
-5.37012669,1.59940900,0.00000000,4.10617600,0.00184547
-5.29012669,0.53826270,0.00000000,4.18307100,0.00286048
-5.21012669,-0.53826270,0.00000000,4.25996500,0.00396777
-5.13012669,-1.58403000,0.00000000,4.29072300,0.00501353
-5.05012669,-2.52214600,0.00000000,4.27534400,0.00599779
-4.97012669,-3.26033400,0.01537894,4.19845000,0.00685901
-4.89012669,-3.76783900,0.00000000,4.02928100,0.00756644
-4.81012669,-4.01390200,-0.01537894,3.78321800,0.00808932
-4.73012669,-4.01390200,-0.04613681,3.44488200,0.00848917
-4.65012668,-3.78321800,-0.09227362,3.01427100,0.00873524
-4.57012668,-3.36798700,-0.16916830,2.50676700,0.00891978
-4.49012668,-2.82972400,-0.23068400,1.98388300,0.00898130
-4.41012668,-2.21456700,-0.30757870,1.43024100,0.00898130
-4.33012668,-1.59940900,-0.35371550,0.92273620,0.00891978
-4.25012668,-1.01501000,-0.33833660,0.49212600,0.00873524
-4.17012668,-0.53826270,-0.27682080,0.16916830,0.00848917
-4.09012668,-0.15378940,-0.10765260,0.01537894,0.00808932
-4.01012668,0.12303150,0.13841040,0.03075787,0.00756644
-3.93012667,0.27682080,0.49212600,0.23068400,0.00685901
-3.85012667,0.35371550,0.92273620,0.58439960,0.00599779
-3.77012667,0.35371550,1.43024100,1.09190400,0.00501353
-3.69012667,0.30757870,1.96850400,1.67630400,0.00396777
-3.61012667,0.23068400,2.52214600,2.27608300,0.00286048
-3.53012667,0.16916830,3.01427100,2.86048200,0.00184547
-3.45012667,0.09227362,3.42950300,3.35260800,0.00098425
-3.37012667,0.04613681,3.73708200,3.70632400,0.00036909
-3.29012667,0.01537894,3.89087100,3.89087100,0.00003076
-3.21012666,0.00000000,3.90625000,3.90625000,0.00003076
-3.13012666,-0.01537894,3.78321800,3.75246000,0.00036909
-3.05012666,0.00000000,3.53715500,3.44488200,0.00098425
-2.97012666,0.00000000,3.18344000,3.02965000,0.00184547
-2.89012666,0.00000000,2.75283000,2.52214600,0.00286048
-2.81012666,0.00000000,2.27608300,1.96850400,0.00396777
-2.73012666,0.00000000,1.76857800,1.43024100,0.00501353
-2.65012666,0.00000000,1.26107300,0.93811510,0.00602854
-2.57012666,0.00000000,0.75356790,0.49212600,0.00688976
-2.49012666,0.00000000,0.24606300,0.13841040,0.00756644
-2.41012665,0.00000000,-0.24606300,-0.12303150,0.00805856
-2.33012665,0.00000000,-0.70743110,-0.30757870,0.00839690
-2.25012665,0.00000000,-1.16879900,-0.43061020,0.00855069
-2.17012665,0.00000000,-1.61478800,-0.50750490,0.00858145
-2.09012665,0.00000000,-2.04539800,-0.53826270,0.00851993
-2.01012665,0.00000000,-2.44525100,-0.53826270,0.00836614
-1.93012665,0.00000000,-2.84510300,-0.49212600,0.00821235
-1.85012665,0.00000000,-3.19881900,-0.38447340,0.00805856
-1.77012665,-0.01537894,-3.52177600,-0.23068400,0.00793553
-1.69012664,0.00000000,-3.79859700,-0.06151574,0.00787402
-1.61012664,0.01537894,-4.02928100,0.06151574,0.00784326
-1.53012664,0.04613681,-4.18307100,0.10765260,0.00784326
-1.45012664,0.09227362,-4.25996500,0.07689468,0.00787402
-1.37012664,0.16916830,-4.29072300,-0.03075787,0.00787402
-1.29012664,0.23068400,-4.25996500,-0.15378940,0.00790477
-1.21012664,0.30757870,-4.18307100,-0.21530510,0.00790477
-1.13012664,0.33833660,-4.10617600,0.07689468,0.00787402
-1.05012664,0.33833660,-4.02928100,0.92273620,0.00787402
-0.97012663,0.26144190,-3.96776600,2.16843000,0.00784326
-0.89012663,0.10765260,-3.93700800,3.41412400,0.00784326
-0.81012663,-0.12303150,-3.92162900,4.27534400,0.00787402
-0.73012663,-0.44598910,-3.92162900,4.33686000,0.00793553
-0.65012663,-0.83046260,-3.93700800,3.41412400,0.00805856
-0.57012663,-1.26107300,-3.93700800,1.61478800,0.00821235
-0.49012663,-1.73782000,-3.95238700,-0.53826270,0.00836614
-0.41012663,-2.21456700,-3.95238700,-2.13767200,0.00851993
-0.33012663,-2.69131400,-3.93700800,-1.76857800,0.00858145
-0.25012663,-3.15268200,-3.93700800,2.10691400,0.00855069
-0.17012662,-3.55253400,-3.92162900,10.84215000,0.00839690
-0.09012662,-3.84473400,-3.92162900,25.52903000,0.00805856
-0.01012662,-3.96776600,-3.93700800,46.73659000,0.00756644
0.06987338,-3.89087100,-3.96776600,74.43405000,0.00688976
0.14987338,-3.61405000,-4.02928100,107.88320000,0.00602854
0.22987338,-3.15268200,-4.10617600,145.63850000,0.00501353
0.30987338,-2.59904000,-4.18307100,185.71600000,0.00396777
0.38987338,-2.06077700,-4.25996500,225.77820000,0.00286048
0.46987338,-1.78395700,-4.29072300,263.34890000,0.00184547
0.54987339,-1.96850400,-4.27534400,296.05990000,0.00098425
0.62987339,-2.58366100,-4.19845000,321.97340000,0.00033834
0.70987339,-3.46026100,-4.02928100,339.65920000,0.00003076
0.78987339,-4.36761800,-3.78321800,348.42520000,0.00006152
0.86987339,-5.09042800,-3.44488200,348.33290000,0.00046137
0.94987339,-5.47490100,-3.01427100,340.10520000,0.00116880
1.02987339,-5.52103800,-2.50676700,325.04920000,0.00218381
1.10987339,-5.45952300,-1.98388300,304.82590000,0.00335261
1.18987339,-5.76710100,-1.43024100,281.23460000,0.00455217
1.26987339,-7.30499500,-0.93811510,255.99780000,0.00569021
1.34987340,-10.96518000,-0.55364170,230.59180000,0.00658219
1.42987340,-17.16289000,-0.27682080,206.12390000,0.00722810
1.50987340,-26.00578000,-0.07689468,183.30150000,0.00768947
1.58987340,-37.32468000,0.07689468,162.35540000,0.00799705
1.66987340,-50.70435000,0.24606300,143.22400000,0.00827387
1.74987340,-65.60654000,0.46136810,125.58440000,0.00861220
1.82987340,-81.49299000,0.69205210,109.00590000,0.00898130
1.90987340,-97.97920000,0.93811510,93.11946000,0.00928888
1.98987340,-114.97290000,1.06114600,77.64825000,0.00941191
2.06987341,-132.85860000,0.83046260,62.50000000,0.00888903
2.14987341,-152.18990000,0.00000000,47.82849000,0.00732037
2.22987341,-173.19760000,-1.35334600,33.97207000,0.00479823
2.30987341,-195.92760000,-3.04502900,21.37672000,0.00166093
2.38987341,-220.19560000,-4.78284900,10.45768000,-0.00163017
2.46987341,-245.67850000,-6.32074300,1.53789400,-0.00464444
2.54987341,-271.80730000,-7.45878400,-5.24421700,-0.00707431
2.62987341,-297.98230000,-8.21235200,-9.96555000,-0.00891978
2.70987341,-323.55740000,-8.84288800,-12.94906000,-0.01058071
2.78987342,-348.02530000,-9.90403500,-14.80992000,-0.01294907
2.86987342,-371.17060000,-12.38004000,-16.17864000,-0.01762426
2.94987342,-392.91640000,-17.30130000,-17.33206000,-0.02629798
3.02987342,-412.97060000,-25.23683000,-18.39321000,-0.03995448
3.10987342,-431.07160000,-36.38656000,-19.26981000,-0.05902436
3.18987342,-446.95800000,-50.64284000,-19.83883000,-0.08347687
3.26987342,-460.38380000,-67.60580000,-19.90034000,-0.11269680
3.34987342,-471.16450000,-86.64493000,-19.31594000,-0.14573080
3.42987342,-479.22300000,-107.06820000,-17.99336000,-0.18131770
3.50987342,-484.52870000,-128.29110000,-16.02485000,-0.21835010
3.58987343,-487.18930000,-149.89850000,-13.64112000,-0.25581320
3.66987343,-487.54300000,-171.98260000,-11.16511000,-0.29339940
3.74987343,-485.92820000,-194.78960000,-8.78137200,-0.33098550
3.82987343,-482.59100000,-218.35010000,-6.61294300,-0.36835630
3.90987343,-477.65440000,-242.60270000,-4.73671200,-0.40532730
3.98987343,-471.16450000,-267.40890000,-3.18344000,-0.44171380
4.06987343,-463.10590000,-292.47660000,-1.95312500,-0.47720840
4.14987343,-453.38640000,-317.39050000,-0.96887300,-0.51141120
4.22987343,-441.99060000,-341.67380000,-0.16916830,-0.54383000
4.30987344,-428.88780000,-364.78840000,0.50750490,-0.57381890
4.38987344,-414.10860000,-386.25740000,1.12266200,-0.60063980
4.46987344,-397.85310000,-405.77320000,1.70706200,-0.62376970
4.54987344,-380.65940000,-423.13600000,2.30684000,-0.64259350
4.62987344,-363.09670000,-438.00750000,2.93737700,-0.65646530
4.70987344,-345.76460000,-450.08000000,3.59867100,-0.66483150
4.78987344,-329.10920000,-459.13810000,4.24458600,-0.66729210
4.86987344,-313.45350000,-465.01290000,4.89050100,-0.66375490
4.94987344,-298.85890000,-467.68880000,5.50565900,-0.65434300
5.02987345,-285.17160000,-467.21210000,6.05930100,-0.63948700
5.10987345,-272.03800000,-463.76720000,6.53604800,-0.61992500
5.18987345,-258.79670000,-457.64640000,6.95127900,-0.59651820
5.26987345,-244.87880000,-449.26490000,7.28961600,-0.57031250
5.34987345,-230.22270000,-439.08400000,7.56643700,-0.54238430
5.42987345,-215.04370000,-427.47290000,7.75098400,-0.51365650
5.50987345,-199.74160000,-414.70840000,7.84325700,-0.48492860
5.58987345,-184.79330000,-400.91350000,7.81250000,-0.45660060
5.66987345,-170.61390000,-386.18050000,7.65871000,-0.42888780
5.74987345,-157.49570000,-370.50930000,7.36651000,-0.40175940
5.82987346,-145.51550000,-353.86930000,6.96665800,-0.37503080
5.90987346,-134.51950000,-336.27580000,6.47453200,-0.34845600
5.98987346,-123.93880000,-317.66730000,5.92089000,-0.32157360
6.06987346,-113.21970000,-298.22830000,5.38262700,-0.29432210
6.14987346,-102.22380000,-278.43560000,4.87512300,-0.26707060
6.22987346,-91.04330000,-258.90440000,4.42913300,-0.24055730
6.30987346,-79.95509000,-240.24970000,4.06003900,-0.21561270
6.38987346,-69.23597000,-222.99460000,3.79859700,-0.19300570
6.46987346,-59.20890000,-207.46190000,3.61405000,-0.17332060
6.54987347,-50.11995000,-193.74380000,3.50639700,-0.15677290
6.62987347,-42.03063000,-181.68680000,3.42950300,-0.14320870
6.70987347,-34.92556000,-170.90610000,3.41412400,-0.13204360
6.78987347,-28.43565000,-160.66370000,3.41412400,-0.12220100
6.86987347,-22.26870000,-150.32910000,3.42950300,-0.11260460
6.94987347,-16.39395000,-139.77920000,3.50639700,-0.10285430
7.02987347,-10.94980000,-129.15230000,3.61405000,-0.09298106
7.10987347,-6.07468000,-118.74080000,3.79859700,-0.08316929
7.18987347,-1.99926200,-108.94440000,4.06003900,-0.07388041
7.26987348,1.13804100,-100.11690000,4.42913300,-0.06554503
7.34987348,3.21419800,-92.48892000,4.87512300,-0.05847072
7.42987348,4.27534400,-86.12204000,5.38262700,-0.05281127
7.50987348,4.44451300,-80.83169000,5.92089000,-0.04844365
7.58987348,4.04466000,-76.12574000,6.47453200,-0.04490650
7.66987348,3.36798700,-71.45053000,6.96665800,-0.04158464
7.74987348,2.55290300,-66.66769000,7.38188900,-0.03841658
7.82987348,1.63016700,-61.83870000,7.67408900,-0.03540231
7.90987348,0.58439960,-57.13275000,7.82787800,-0.03260335
7.98987348,-0.63053640,-52.81126000,7.81250000,-0.03026575
8.06987349,-2.09153500,-49.08956000,7.62795300,-0.02851255
8.14987349,-3.82935500,-46.13681000,7.28961600,-0.02746678
8.22987349,-5.87475300,-43.98376000,6.79749000,-0.02715920
8.30987349,-8.15083600,-42.47662000,6.22846900,-0.02749754
8.38987349,-10.53457000,-41.23093000,5.62869100,-0.02817421
8.46987349,-12.88755000,-39.83145000,5.02891200,-0.02891240
8.54987349,-15.11749000,-38.01673000,4.52140800,-0.02965059
8.62987349,-17.14751000,-35.72527000,4.15231300,-0.03032726
8.70987349,-18.86995000,-32.92630000,3.95238700,-0.03100394
8.78987350,-20.25406000,-29.74286000,3.95238700,-0.03177289
8.86987350,-21.26907000,-26.31336000,4.15231300,-0.03269562
8.94987350,-21.91498000,-22.76083000,4.52140800,-0.03380290
9.02987350,-22.23794000,-19.23905000,5.02891200,-0.03509473
9.10987350,-22.31484000,-15.80955000,5.62869100,-0.03650960
9.18987350,-22.25332000,-12.39542000,6.22846900,-0.03786294
9.26987350,-22.17643000,-8.91978400,6.81286900,-0.03897022
9.34987350,-22.22256000,-5.33649100,7.28961600,-0.03970842
9.42987350,-22.49938000,-1.67630400,7.64333200,-0.03992372
9.50987351,-23.09916000,2.04539800,7.82787800,-0.03961614
9.58987351,-24.05266000,5.79785900,7.82787800,-0.03869341
9.66987351,-25.37524000,9.50418300,7.64333200,-0.03721703
9.74987351,-26.97465000,13.10285000,7.28961600,-0.03524852
9.82987351,-28.78937000,16.56311000,6.81286900,-0.03284941
9.90987351,-30.65022000,19.80807000,6.22846900,-0.03017347
9.98987351,-32.41880000,22.80696000,5.62869100,-0.02731299
10.06987351,-33.91056000,25.49828000,5.02891200,-0.02439099
10.14987351,-35.00246000,27.82050000,4.52140800,-0.02156127
10.22987351,-35.55610000,29.65059000,4.15231300,-0.01894685
10.30987352,-35.54072000,30.95780000,3.95238700,-0.01667077
10.38987352,-34.92556000,31.66523000,3.93700800,-0.01482530
10.46987352,-33.75676000,31.77288000,4.10617600,-0.01341043
10.54987352,-32.11122000,31.31151000,4.42913300,-0.01242618
10.62987352,-30.06582000,30.34264000,4.87512300,-0.01181102
10.70987352,-27.71284000,28.92778000,5.38262700,-0.01144193
10.78987352,-25.12918000,27.15920000,5.93626900,-0.01116511
10.86987352,-22.34559000,25.08304000,6.45915300,-0.01082677
10.94987352,-19.40822000,22.73007000,6.95127900,-0.01030389
11.02987353,-16.37857000,20.10027000,7.36651000,-0.00950418
11.10987353,-13.30278000,17.22441000,7.70484700,-0.00845842
11.18987353,-10.24237000,14.08710000,7.96628900,-0.00716658
11.26987353,-7.21272100,10.73450000,8.12007800,-0.00569021
11.34987353,-4.24458600,7.16658400,8.21235200,-0.00412156
11.42987353,-1.36872500,3.46026100,8.24311000,-0.00246063
11.50987353,1.43024100,-0.33833660,8.21235200,-0.00083046
11.58987353,4.15231300,-4.15231300,8.13545700,0.00083046
11.66987353,6.84362600,-7.92015200,8.05856200,0.00246063
11.74987353,9.48880400,-11.56496000,7.96628900,0.00406004
11.82987354,12.05709000,-14.99446000,7.88939400,0.00562869
