Time,Channel A,Channel B,Channel C,Channel D
(ns),(mV),(mV),(mV),(V)

-15.64999983,0.09227362,-3.79859700,0.00000000,0.00027682
-15.56999982,0.21530510,-3.49101900,-0.03075787,0.00092274
-15.48999982,0.24606300,-3.10654500,-0.09227362,0.00166093
-15.40999982,0.18454720,-2.67593500,-0.15378940,0.00255290
-15.32999982,0.06151574,-2.21456700,-0.23068400,0.00347564
-15.24999982,-0.06151574,-1.73782000,-0.30757870,0.00442913
-15.16999982,-0.18454720,-1.27645200,-0.33833660,0.00535187
-15.08999982,-0.24606300,-0.83046260,-0.32295760,0.00621309
-15.00999982,-0.21530510,-0.46136810,-0.24606300,0.00698204
-14.92999982,-0.09227362,-0.13841040,-0.10765260,0.00759720
-14.84999981,0.12303150,0.12303150,0.12303150,0.00805856
-14.76999981,0.43061020,0.30757870,0.39985230,0.00836614
-14.68999981,0.83046260,0.43061020,0.73818890,0.00855069
-14.60999981,1.26107300,0.50750490,1.10728300,0.00858145
-14.52999981,1.73782000,0.53826270,1.50713600,0.00851993
-14.44999981,2.21456700,0.53826270,1.90698800,0.00836614
-14.36999981,2.67593500,0.50750490,2.33759800,0.00821235
-14.28999981,3.10654500,0.43061020,2.76820900,0.00805856
-14.20999981,3.47564000,0.30757870,3.21419800,0.00793553
-14.12999980,3.78321800,0.12303150,3.67556500,0.00787402
-14.04999980,4.04466000,-0.13841040,4.16769200,0.00784326
-13.96999980,4.22920700,-0.49212600,4.67519700,0.00784326
-13.88999980,4.36761800,-0.93811510,5.19808000,0.00787402
-13.80999980,4.44451300,-1.43024100,5.72096400,0.00787402
-13.72999980,4.49065000,-1.96850400,6.22846900,0.00790477
-13.64999980,4.49065000,-2.52214600,6.70521600,0.00790477
-13.56999980,4.44451300,-3.01427100,7.13582600,0.00790477
-13.48999980,4.36761800,-3.44488200,7.47416300,0.00787402
-13.40999980,4.22920700,-3.73708200,7.72022600,0.00784326
-13.32999979,4.02928100,-3.90625000,7.82787800,0.00784326
-13.24999979,3.79859700,-3.90625000,7.81250000,0.00784326
-13.16999979,3.52177600,-3.73708200,7.65871000,0.00784326
-13.08999979,3.19881900,-3.44488200,7.36651000,0.00787402
-13.00999979,2.82972400,-3.01427100,6.96665800,0.00790477
-12.92999979,2.44525100,-2.52214600,6.47453200,0.00790477
-12.84999979,2.04539800,-1.96850400,5.92089000,0.00790477
-12.76999979,1.61478800,-1.43024100,5.36724900,0.00790477
-12.68999979,1.16879900,-0.92273620,4.85974400,0.00787402
-12.60999978,0.70743110,-0.49212600,4.39837600,0.00784326
-12.52999978,0.24606300,-0.13841040,4.06003900,0.00784326
-12.44999978,-0.24606300,0.10765260,3.81397600,0.00784326
-12.36999978,-0.75356790,0.27682080,3.70632400,0.00784326
-12.28999978,-1.26107300,0.33833660,3.69094500,0.00787402
-12.20999978,-1.76857800,0.35371550,3.76783900,0.00790477
-12.12999978,-2.27608300,0.30757870,3.89087100,0.00790477
-12.04999978,-2.75283000,0.23068400,4.01390200,0.00790477
-11.96999978,-3.18344000,0.15378940,4.12155500,0.00787402
-11.88999977,-3.53715500,0.09227362,4.18307100,0.00787402
-11.80999977,-3.79859700,0.03075787,4.15231300,0.00784326
-11.72999977,-3.92162900,0.00000000,4.01390200,0.00784326
-11.64999977,-3.89087100,0.00000000,3.79859700,0.00787402
-11.56999977,-3.69094500,0.03075787,3.49101900,0.00793553
-11.48999977,-3.33722900,0.09227362,3.10654500,0.00805856
-11.40999977,-2.86048200,0.15378940,2.67593500,0.00821235
-11.32999977,-2.27608300,0.23068400,2.21456700,0.00836614
-11.24999977,-1.67630400,0.30757870,1.73782000,0.00851993
-11.16999977,-1.09190400,0.35371550,1.27645200,0.00858145
-11.08999976,-0.58439960,0.33833660,0.83046260,0.00855069
-11.00999976,-0.21530510,0.27682080,0.46136810,0.00836614
-10.92999976,-0.03075787,0.10765260,0.13841040,0.00805856
-10.84999976,-0.03075787,-0.13841040,-0.12303150,0.00759720
-10.76999976,-0.21530510,-0.49212600,-0.30757870,0.00698204
-10.68999976,-0.58439960,-0.92273620,-0.43061020,0.00621309
-10.60999976,-1.09190400,-1.43024100,-0.50750490,0.00535187
-10.52999976,-1.67630400,-1.96850400,-0.53826270,0.00442913
-10.44999976,-2.27608300,-2.52214600,-0.53826270,0.00347564
-10.36999975,-2.86048200,-3.02965000,-0.50750490,0.00255290
-10.28999975,-3.35260800,-3.44488200,-0.43061020,0.00166093
-10.20999975,-3.70632400,-3.75246000,-0.30757870,0.00092274
-10.12999975,-3.89087100,-3.90625000,-0.12303150,0.00027682
-10.04999975,-3.89087100,-3.89087100,0.13841040,-0.00024606
-9.96999975,-3.70632400,-3.70632400,0.46136810,-0.00061516
-9.88999975,-3.35260800,-3.35260800,0.83046260,-0.00086122
-9.80999975,-2.86048200,-2.86048200,1.27645200,-0.00101501
-9.72999975,-2.27608300,-2.27608300,1.73782000,-0.00107653
-9.64999974,-1.67630400,-1.67630400,2.21456700,-0.00107653
-9.56999974,-1.09190400,-1.09190400,2.67593500,-0.00101501
-9.48999974,-0.58439960,-0.58439960,3.10654500,-0.00086122
-9.40999974,-0.21530510,-0.23068400,3.49101900,-0.00061516
-9.32999974,-0.03075787,-0.03075787,3.79859700,-0.00024606
-9.24999974,-0.03075787,-0.01537894,4.02928100,0.00027682
-9.16999974,-0.21530510,-0.16916830,4.18307100,0.00098425
-9.08999974,-0.58439960,-0.49212600,4.27534400,0.00187623
-9.00999974,-1.09190400,-0.92273620,4.29072300,0.00286048
-8.92999974,-1.67630400,-1.43024100,4.25996500,0.00393701
-8.84999973,-2.27608300,-1.98388300,4.18307100,0.00504429
-8.76999973,-2.86048200,-2.50676700,4.10617600,0.00605930
-8.68999973,-3.35260800,-3.01427100,4.02928100,0.00688976
-8.60999973,-3.70632400,-3.44488200,3.96776600,0.00750492
-8.52999973,-3.89087100,-3.78321800,3.93700800,0.00781250
-8.44999973,-3.90625000,-4.02928100,3.92162900,0.00778174
-8.36999973,-3.75246000,-4.19845000,3.92162900,0.00741265
-8.28999973,-3.44488200,-4.27534400,3.93700800,0.00670522
-8.20999973,-3.02965000,-4.29072300,3.93700800,0.00572097
-8.12999972,-2.52214600,-4.25996500,3.95238700,0.00455217
-8.04999972,-1.96850400,-4.18307100,3.95238700,0.00335261
-7.96999972,-1.43024100,-4.10617600,3.95238700,0.00218381
-7.88999972,-0.92273620,-4.02928100,3.93700800,0.00116880
-7.80999972,-0.49212600,-3.96776600,3.92162900,0.00043061
-7.72999972,-0.13841040,-3.93700800,3.92162900,0.00006152
-7.64999972,0.10765260,-3.92162900,3.92162900,0.00006152
-7.56999972,0.27682080,-3.92162900,3.92162900,0.00043061
-7.48999972,0.33833660,-3.93700800,3.93700800,0.00116880
-7.40999972,0.35371550,-3.93700800,3.95238700,0.00218381
-7.32999971,0.30757870,-3.95238700,3.95238700,0.00335261
-7.24999971,0.23068400,-3.95238700,3.95238700,0.00455217
-7.16999971,0.15378940,-3.93700800,3.95238700,0.00572097
-7.08999971,0.09227362,-3.93700800,3.93700800,0.00670522
-7.00999971,0.03075787,-3.92162900,3.92162900,0.00741265
-6.92999971,0.00000000,-3.92162900,3.92162900,0.00778174
-6.84999971,0.00000000,-3.93700800,3.92162900,0.00781250
-6.76999971,0.03075787,-3.96776600,3.92162900,0.00750492
-6.68999971,0.09227362,-4.02928100,3.93700800,0.00688976
-6.60999970,0.15378940,-4.10617600,3.95238700,0.00605930
-6.52999970,0.23068400,-4.18307100,3.95238700,0.00504429
-6.44999970,0.30757870,-4.25996500,3.95238700,0.00393701
-6.36999970,0.35371550,-4.29072300,3.95238700,0.00286048
-6.28999970,0.33833660,-4.27534400,3.93700800,0.00187623
-6.20999970,0.27682080,-4.18307100,3.92162900,0.00098425
-6.12999970,0.10765260,-4.02928100,3.92162900,0.00027682
-6.04999970,-0.13841040,-3.79859700,3.92162900,-0.00024606
-5.96999970,-0.49212600,-3.49101900,3.92162900,-0.00061516
-5.88999969,-0.92273620,-3.10654500,3.93700800,-0.00086122
-5.80999969,-1.43024100,-2.67593500,3.95238700,-0.00101501
-5.72999969,-1.96850400,-2.21456700,3.95238700,-0.00107653
-5.64999969,-2.52214600,-1.73782000,3.95238700,-0.00107653
-5.56999969,-3.01427100,-1.27645200,3.95238700,-0.00101501
-5.48999969,-3.44488200,-0.83046260,3.93700800,-0.00086122
-5.40999969,-3.73708200,-0.46136810,3.92162900,-0.00061516
-5.32999969,-3.90625000,-0.13841040,3.92162900,-0.00024606
-5.24999969,-3.90625000,0.12303150,3.92162900,0.00027682
-5.16999969,-3.73708200,0.30757870,3.92162900,0.00092274
-5.08999968,-3.44488200,0.43061020,3.93700800,0.00166093
-5.00999968,-3.01427100,0.50750490,3.95238700,0.00255290
-4.92999968,-2.52214600,0.53826270,3.95238700,0.00347564
-4.84999968,-1.96850400,0.53826270,3.95238700,0.00442913
-4.76999968,-1.43024100,0.50750490,3.95238700,0.00535187
-4.68999968,-0.92273620,0.43061020,3.93700800,0.00621309
-4.60999968,-0.49212600,0.30757870,3.92162900,0.00695128
-4.52999968,-0.13841040,0.12303150,3.92162900,0.00756644
-4.44999968,0.10765260,-0.13841040,3.92162900,0.00808932
-4.36999967,0.27682080,-0.46136810,3.92162900,0.00845842
-4.28999967,0.33833660,-0.83046260,3.93700800,0.00873524
-4.20999967,0.35371550,-1.27645200,3.95238700,0.00888903
-4.12999967,0.30757870,-1.73782000,3.95238700,0.00898130
-4.04999967,0.23068400,-2.21456700,3.95238700,0.00898130
-3.96999967,0.15378940,-2.67593500,3.95238700,0.00888903
-3.88999967,0.09227362,-3.10654500,3.93700800,0.00873524
-3.80999967,0.03075787,-3.47564000,3.92162900,0.00845842
-3.72999967,0.00000000,-3.78321800,3.92162900,0.00808932
-3.64999966,0.00000000,-4.04466000,3.92162900,0.00756644
-3.56999966,0.03075787,-4.22920700,3.92162900,0.00695128
-3.48999966,0.09227362,-4.36761800,3.93700800,0.00621309
-3.40999966,0.15378940,-4.44451300,3.95238700,0.00535187
-3.32999966,0.23068400,-4.49065000,3.95238700,0.00442913
-3.24999966,0.30757870,-4.49065000,3.95238700,0.00347564
-3.16999966,0.33833660,-4.45989200,3.93700800,0.00255290
-3.08999966,0.33833660,-4.36761800,3.93700800,0.00166093
-3.00999966,0.26144190,-4.24458600,3.92162900,0.00092274
-2.92999966,0.10765260,-4.04466000,3.92162900,0.00027682
-2.84999965,-0.12303150,-3.78321800,3.93700800,-0.00024606
-2.76999965,-0.44598910,-3.42950300,3.96776600,-0.00061516
-2.68999965,-0.83046260,-2.99889300,4.02928100,-0.00086122
-2.60999965,-1.26107300,-2.50676700,4.10617600,-0.00101501
-2.52999965,-1.73782000,-1.98388300,4.18307100,-0.00107653
-2.44999965,-2.21456700,-1.43024100,4.25996500,-0.00107653
-2.36999965,-2.67593500,-0.92273620,4.29072300,-0.00101501
-2.28999965,-3.10654500,-0.49212600,4.27534400,-0.00086122
-2.20999965,-3.47564000,-0.16916830,4.19845000,-0.00061516
-2.12999964,-3.78321800,-0.01537894,4.02928100,-0.00024606
-2.04999964,-4.04466000,-0.03075787,3.78321800,0.00027682
-1.96999964,-4.22920700,-0.23068400,3.44488200,0.00092274
-1.88999964,-4.36761800,-0.58439960,3.01427100,0.00166093
-1.80999964,-4.44451300,-1.09190400,2.50676700,0.00255290
-1.72999964,-4.49065000,-1.67630400,1.98388300,0.00347564
-1.64999964,-4.49065000,-2.27608300,1.43024100,0.00442913
-1.56999964,-4.44451300,-2.86048200,0.95349410,0.00535187
-1.48999964,-4.36761800,-3.35260800,0.59977850,0.00621309
-1.40999963,-4.22920700,-3.70632400,0.33833660,0.00695128
-1.32999963,-4.02928100,-3.89087100,0.12303150,0.00756644
-1.24999963,-3.79859700,-3.90625000,-0.13841040,0.00808932
-1.16999963,-3.52177600,-3.75246000,-0.50750490,0.00845842
-1.08999963,-3.19881900,-3.44488200,-1.03038900,0.00873524
-1.00999963,-2.82972400,-3.02965000,-1.67630400,0.00888903
-0.92999963,-2.44525100,-2.52214600,-2.35297700,0.00898130
-0.84999963,-2.04539800,-1.96850400,-2.89124000,0.00898130
-0.76999963,-1.61478800,-1.43024100,-2.89124000,0.00888903
-0.68999963,-1.16879900,-0.93811510,-1.98388300,0.00873524
-0.60999962,-0.70743110,-0.49212600,-0.18454720,0.00845842
-0.52999962,-0.24606300,-0.13841040,2.41449300,0.00808932
-0.44999962,0.24606300,0.12303150,5.52103800,0.00756644
-0.36999962,0.75356790,0.30757870,8.85826700,0.00695128
-0.28999962,1.26107300,0.43061020,12.14936000,0.00621309
-0.20999962,1.76857800,0.50750490,15.33280000,0.00535187
-0.12999962,2.27608300,0.53826270,18.56238000,0.00442913
-0.04999962,2.75283000,0.53826270,22.26870000,0.00347564
0.03000038,3.15268200,0.50750490,27.18996000,0.00252215
0.11000039,3.44488200,0.43061020,34.21814000,0.00166093
0.19000039,3.64480800,0.30757870,44.27596000,0.00089198
0.27000039,3.82935500,0.12303150,58.14776000,0.00024606
0.35000039,4.02928100,-0.13841040,76.32566000,-0.00021531
0.43000039,4.33686000,-0.46136810,98.85580000,-0.00052288
0.51000039,4.76747000,-0.83046260,125.30760000,-0.00067667
0.59000039,5.29035400,-1.27645200,154.63520000,-0.00067667
0.67000039,5.82861700,-1.73782000,185.31620000,-0.00061516
0.75000039,6.22846900,-2.21456700,215.44350000,-0.00046137
0.83000039,6.15157400,-2.67593500,242.87950000,-0.00033834
0.91000040,5.27497500,-3.10654500,265.50200000,-0.00018455
0.99000040,3.61405000,-3.49101900,281.49600000,-0.00009227
1.07000040,1.30720900,-3.79859700,289.50850000,-0.00003076
1.15000040,-1.36872500,-4.01390200,288.80100000,0.00000000
1.23000040,-4.16769200,-4.15231300,279.38910000,0.00003076
1.31000040,-6.84362600,-4.18307100,262.01100000,0.00000000
1.39000040,-9.33501400,-4.12155500,238.03520000,0.00000000
1.47000040,-11.84178000,-4.01390200,209.32270000,0.00000000
1.55000040,-14.80992000,-3.89087100,177.96500000,0.00000000
1.63000041,-19.14677000,-3.79859700,146.11530000,-0.00006152
1.71000041,-25.79048000,-3.82935500,115.71110000,-0.00021531
1.79000041,-35.23314000,-3.90625000,88.29047000,-0.00030758
1.87000041,-47.62856000,-3.95238700,64.91449000,-0.00018455
1.95000041,-62.85371000,-3.84473400,46.05991000,0.00030758
2.03000041,-80.47797000,-3.50639700,31.69599000,0.00138410
2.11000041,-99.88618000,-2.86048200,21.33058000,0.00304503
2.19000041,-120.44780000,-1.96850400,14.16400000,0.00519808
2.27000041,-141.59390000,-0.95349410,9.27349900,0.00756644
2.35000042,-163.00130000,-0.07689468,5.69020700,0.00975025
2.43000042,-184.82410000,0.15378940,2.67593500,0.01082677
2.51000042,-207.35420000,-0.70743110,-0.26144190,0.01008858
2.59000042,-230.62250000,-2.75283000,-3.30647100,0.00735113
2.67000042,-254.56750000,-5.92089000,-6.36687900,0.00282972
2.75000042,-278.97390000,-9.95017100,-9.22736200,-0.00310655
2.83000042,-303.51870000,-14.54847000,-11.58034000,-0.00981176
2.91000042,-327.78660000,-19.40822000,-13.13361000,-0.01688607
2.99000042,-351.27030000,-24.36024000,-13.76415000,-0.02405266
3.07000042,-373.49290000,-29.46604000,-13.48733000,-0.03146530
3.15000043,-394.06990000,-35.07935000,-12.61073000,-0.03983145
3.23000043,-412.87830000,-42.03063000,-11.51882000,-0.05059670
3.31000043,-429.87200000,-51.18110000,-10.39616000,-0.06536048
3.39000043,-444.80500000,-63.03826000,-9.31963500,-0.08519931
3.47000043,-457.44650000,-77.81741000,-8.32000400,-0.11063610
3.55000043,-467.58120000,-95.44168000,-7.36651000,-0.14176300
3.63000043,-474.97850000,-115.52660000,-6.41301600,-0.17808810
3.71000043,-479.54600000,-137.50310000,-5.36724900,-0.21853470
3.79000043,-481.22230000,-160.64840000,-4.21382900,-0.26181100
3.87000044,-480.14580000,-184.28580000,-2.92199800,-0.30637920
3.95000044,-476.47020000,-207.86170000,-1.56865100,-0.35076280
4.03000044,-470.64160000,-231.20690000,-0.19992620,-0.39400840
4.11000044,-463.13670000,-254.32150000,1.10728300,-0.43531620
4.19000044,-454.32450000,-277.00540000,2.32221900,-0.47391730
4.27000044,-444.52810000,-299.10490000,3.42950300,-0.50925810
4.35000044,-433.88590000,-320.40480000,4.38299700,-0.54100020
4.43000044,-422.47470000,-340.67420000,5.19808000,-0.56895920
4.51000044,-410.21770000,-359.63640000,5.87475300,-0.59304260
4.59000045,-397.03800000,-377.04540000,6.41301600,-0.61315820
4.67000045,-382.82790000,-392.59350000,6.84362600,-0.62933680
4.75000045,-367.43350000,-406.09620000,7.18196300,-0.64145550
4.83000045,-350.85510000,-417.46120000,7.45878400,-0.64954480
4.91000045,-333.49220000,-426.65780000,7.65871000,-0.65342030
4.99000045,-315.89870000,-433.57830000,7.79712100,-0.65292820
5.07000045,-298.61280000,-438.03820000,7.85863600,-0.64769930
5.15000045,-282.17270000,-439.91450000,7.81250000,-0.63758000
5.23000045,-266.93220000,-439.13010000,7.64333200,-0.62250860
5.31000045,-253.01430000,-435.63910000,7.35113100,-0.60254680
5.39000046,-240.29590000,-429.50290000,6.96665800,-0.57812500
5.47000046,-228.43870000,-420.92150000,6.47453200,-0.54982780
5.55000046,-216.70460000,-410.09470000,5.92089000,-0.51851620
5.63000046,-204.40140000,-397.42250000,5.38262700,-0.48517470
5.71000046,-191.39090000,-383.38150000,4.85974400,-0.45097200
5.79000046,-177.76510000,-368.44860000,4.41375400,-0.41707680
5.87000046,-163.84720000,-353.00810000,4.06003900,-0.38438110
5.95000046,-150.02150000,-337.30620000,3.81397600,-0.35356180
6.03000046,-136.70340000,-321.51200000,3.66018700,-0.32489540
6.11000047,-124.18490000,-305.64100000,3.59867100,-0.29841290
6.19000047,-112.60460000,-289.64690000,3.59867100,-0.27383740
6.27000047,-101.91620000,-273.42210000,3.64480800,-0.25067670
6.35000047,-91.68922000,-256.72060000,3.72170300,-0.22816190
6.43000047,-81.49299000,-239.46540000,3.78321800,-0.20577020
6.51000047,-71.29675000,-221.97960000,3.84473400,-0.18368600
6.59000047,-61.26968000,-204.72440000,3.89087100,-0.16237080
6.67000047,-51.64247000,-188.23820000,3.90625000,-0.14250120
6.75000047,-42.70731000,-172.99770000,3.92162900,-0.12484620
6.83000048,-34.71026000,-159.34120000,3.93700800,-0.10986710
6.91000048,-27.82050000,-147.42250000,3.93700800,-0.09793307
6.99000048,-22.05339000,-137.14940000,3.95238700,-0.08889025
7.07000048,-17.34744000,-128.18340000,3.95238700,-0.08230807
7.15000048,-13.31816000,-119.84810000,3.95238700,-0.07710999
7.23000048,-9.65797200,-111.52800000,3.95238700,-0.07225025
7.31000048,-6.32074300,-103.08500000,3.93700800,-0.06735975
7.39000048,-3.36798700,-94.59583000,3.92162900,-0.06234621
7.47000048,-0.95349410,-86.32197000,3.92162900,-0.05733268
7.55000048,0.76894680,-78.60175000,3.92162900,-0.05262672
7.63000049,1.64554600,-71.74274000,3.92162900,-0.04859744
7.71000049,1.64554600,-65.99102000,3.93700800,-0.04546014
7.79000049,0.75356790,-61.34658000,3.95238700,-0.04339936
7.87000049,-0.84584150,-57.68639000,3.95238700,-0.04229208
7.95000049,-2.89124000,-54.54909000,3.95238700,-0.04173844
8.03000049,-5.04429100,-51.39640000,3.95238700,-0.04127707
8.11000049,-7.16658400,-48.08994000,3.93700800,-0.04078494
8.19000049,-9.15046700,-44.58353000,3.92162900,-0.04020054
8.27000049,-10.93442000,-41.00024000,3.92162900,-0.03955463
8.35000050,-12.54921000,-37.49385000,3.92162900,-0.03890871
8.43000050,-14.01021000,-34.29503000,3.92162900,-0.03841658
8.51000050,-15.37894000,-31.51144000,3.93700800,-0.03813976
8.59000050,-16.70152000,-29.23536000,3.95238700,-0.03810900
8.67000050,-17.97798000,-27.40526000,3.95238700,-0.03829355
8.75000050,-19.20829000,-25.75972000,3.95238700,-0.03857037
8.83000050,-20.36171000,-24.00652000,3.95238700,-0.03878568
8.91000050,-21.42286000,-22.00726000,3.93700800,-0.03897022
8.99000050,-22.37635000,-19.70042000,3.92162900,-0.03906250
9.07000051,-23.19143000,-17.08600000,3.92162900,-0.03915477
9.15000051,-23.83735000,-14.24089000,3.92162900,-0.03930856
9.23000051,-24.28334000,-11.27276000,3.92162900,-0.03949311
9.31000051,-24.51402000,-8.27386800,3.93700800,-0.03976993
9.39000051,-24.54478000,-5.33649100,3.95238700,-0.04010827
9.47000051,-24.39099000,-2.52214600,3.95238700,-0.04047736
9.55000051,-24.11417000,0.19992620,3.95238700,-0.04075418
9.63000051,-23.80659000,2.89124000,3.95238700,-0.04081570
9.71000051,-23.52977000,5.53641700,3.93700800,-0.04066191
9.79000051,-23.37598000,8.10469900,3.92162900,-0.04026206
9.87000052,-23.42212000,10.58071000,3.92162900,-0.03961614
9.95000052,-23.71432000,12.90293000,3.92162900,-0.03878568
10.03000052,-24.28334000,15.05598000,3.92162900,-0.03777067
10.11000052,-25.09842000,16.99372000,3.93700800,-0.03660187
10.19000052,-26.06730000,18.68541000,3.95238700,-0.03534080
10.27000052,-27.11306000,20.14641000,3.95238700,-0.03398745
10.35000052,-28.05118000,21.37672000,3.95238700,-0.03248031
10.43000052,-28.75861000,22.36097000,3.93700800,-0.03081939
10.51000052,-29.05081000,23.09916000,3.93700800,-0.02891240
10.59000053,-28.83550000,23.51439000,3.92162900,-0.02688238
10.67000053,-28.06656000,23.62205000,3.92162900,-0.02466781
10.75000053,-26.71321000,23.36060000,3.93700800,-0.02239173
10.83000053,-24.82160000,22.76083000,3.96776600,-0.02002338
10.91000053,-22.45325000,21.82271000,4.02928100,-0.01768578
10.99000053,-19.73118000,20.59240000,4.10617600,-0.01531742
11.07000053,-16.74766000,19.10064000,4.18307100,-0.01301058
11.15000053,-13.62574000,17.39358000,4.25996500,-0.01070374
11.23000053,-10.41154000,15.51735000,4.29072300,-0.00833538
