Time,Channel A,Channel B,Channel C,Channel D
(ns),(mV),(mV),(mV),(V)

-15.32727283,0.13841040,-4.04466000,3.78321800,0.00756644
-15.24727282,0.49212600,-4.36761800,3.44488200,0.00688976
-15.16727282,0.93811510,-4.76747000,3.01427100,0.00602854
-15.08727282,1.43024100,-5.21345900,2.50676700,0.00501353
-15.00727282,1.96850400,-5.69020700,1.98388300,0.00396777
-14.92727282,2.52214600,-6.16695300,1.43024100,0.00286048
-14.84727282,3.01427100,-6.61294300,0.92273620,0.00184547
-14.76727282,3.44488200,-7.04355200,0.50750490,0.00098425
-14.68727282,3.73708200,-7.39726800,0.19992620,0.00036909
-14.60727282,3.90625000,-7.70484700,0.03075787,0.00003076
-14.52727281,3.90625000,-7.96628900,0.01537894,0.00003076
-14.44727281,3.73708200,-8.16621500,0.13841040,0.00036909
-14.36727281,3.44488200,-8.30462600,0.39985230,0.00098425
-14.28727281,3.01427100,-8.39689900,0.76894680,0.00184547
-14.20727281,2.52214600,-8.44303500,1.19955700,0.00286048
-14.12727281,1.96850400,-8.44303500,1.67630400,0.00396777
-14.04727281,1.43024100,-8.39689900,2.16843000,0.00501353
-13.96727281,0.92273620,-8.30462600,2.67593500,0.00599779
-13.88727281,0.49212600,-8.16621500,3.16806100,0.00685901
-13.80727280,0.13841040,-7.96628900,3.67556500,0.00756644
-13.72727280,-0.10765260,-7.70484700,4.16769200,0.00808932
-13.64727280,-0.27682080,-7.39726800,4.69057600,0.00848917
-13.56727280,-0.33833660,-7.04355200,5.19808000,0.00873524
-13.48727280,-0.35371550,-6.61294300,5.72096400,0.00891978
-13.40727280,-0.30757870,-6.16695300,6.22846900,0.00898130
-13.32727280,-0.23068400,-5.69020700,6.70521600,0.00898130
-13.24727280,-0.16916830,-5.21345900,7.13582600,0.00891978
-13.16727280,-0.09227362,-4.76747000,7.47416300,0.00873524
-13.08727280,-0.04613681,-4.36761800,7.72022600,0.00848917
-13.00727279,-0.01537894,-4.04466000,7.82787800,0.00808932
-12.92727279,0.00000000,-3.81397600,7.81250000,0.00756644
-12.84727279,0.01537894,-3.66018700,7.65871000,0.00685901
-12.76727279,0.00000000,-3.59867100,7.36651000,0.00599779
-12.68727279,0.00000000,-3.59867100,6.96665800,0.00501353
-12.60727279,0.00000000,-3.64480800,6.47453200,0.00396777
-12.52727279,0.00000000,-3.72170300,5.92089000,0.00286048
-12.44727279,0.00000000,-3.78321800,5.38262700,0.00184547
-12.36727279,0.00000000,-3.84473400,4.85974400,0.00098425
-12.28727278,0.00000000,-3.89087100,4.41375400,0.00036909
-12.20727278,0.00000000,-3.90625000,4.06003900,0.00003076
-12.12727278,0.00000000,-3.92162900,3.81397600,0.00003076
-12.04727278,0.00000000,-3.93700800,3.66018700,0.00036909
-11.96727278,0.00000000,-3.93700800,3.59867100,0.00098425
-11.88727278,0.00000000,-3.95238700,3.59867100,0.00184547
-11.80727278,0.00000000,-3.95238700,3.64480800,0.00286048
-11.72727278,0.00000000,-3.95238700,3.72170300,0.00396777
-11.64727278,0.00000000,-3.95238700,3.78321800,0.00501353
-11.56727277,0.00000000,-3.93700800,3.84473400,0.00602854
-11.48727277,0.00000000,-3.92162900,3.89087100,0.00688976
-11.40727277,0.00000000,-3.92162900,3.90625000,0.00756644
-11.32727277,0.00000000,-3.92162900,3.92162900,0.00805856
-11.24727277,0.00000000,-3.92162900,3.93700800,0.00839690
-11.16727277,0.00000000,-3.93700800,3.93700800,0.00855069
-11.08727277,0.00000000,-3.95238700,3.95238700,0.00858145
-11.00727277,0.00000000,-3.95238700,3.95238700,0.00851993
-10.92727277,0.00000000,-3.95238700,3.95238700,0.00836614
-10.84727277,0.00000000,-3.93700800,3.95238700,0.00821235
-10.76727276,0.00000000,-3.93700800,3.93700800,0.00805856
-10.68727276,0.00000000,-3.92162900,3.92162900,0.00793553
-10.60727276,0.00000000,-3.92162900,3.92162900,0.00787402
-10.52727276,0.00000000,-3.93700800,3.92162900,0.00784326
-10.44727276,0.00000000,-3.96776600,3.92162900,0.00784326
-10.36727276,0.00000000,-4.02928100,3.93700800,0.00787402
-10.28727276,0.00000000,-4.10617600,3.95238700,0.00787402
-10.20727276,0.00000000,-4.18307100,3.95238700,0.00790477
-10.12727276,0.00000000,-4.25996500,3.95238700,0.00790477
-10.04727275,0.00000000,-4.29072300,3.95238700,0.00787402
-9.96727275,0.00000000,-4.27534400,3.93700800,0.00787402
-9.88727275,0.00000000,-4.19845000,3.92162900,0.00784326
-9.80727275,0.00000000,-4.02928100,3.92162900,0.00784326
-9.72727275,0.00000000,-3.78321800,3.92162900,0.00787402
-9.64727275,0.00000000,-3.44488200,3.92162900,0.00793553
-9.56727275,0.00000000,-3.01427100,3.93700800,0.00805856
-9.48727275,0.00000000,-2.50676700,3.95238700,0.00821235
-9.40727275,0.00000000,-1.98388300,3.95238700,0.00836614
-9.32727274,0.00000000,-1.43024100,3.95238700,0.00851993
-9.24727274,0.00000000,-0.92273620,3.95238700,0.00858145
-9.16727274,0.00000000,-0.49212600,3.93700800,0.00855069
-9.08727274,0.01537894,-0.16916830,3.93700800,0.00839690
-9.00727274,0.00000000,-0.01537894,3.92162900,0.00805856
-8.92727274,-0.01537894,-0.03075787,3.90625000,0.00756644
-8.84727274,-0.04613681,-0.23068400,3.89087100,0.00688976
-8.76727274,-0.09227362,-0.58439960,3.84473400,0.00602854
-8.68727274,-0.16916830,-1.09190400,3.78321800,0.00501353
-8.60727274,-0.23068400,-1.67630400,3.72170300,0.00396777
-8.52727273,-0.30757870,-2.27608300,3.64480800,0.00286048
-8.44727273,-0.35371550,-2.86048200,3.59867100,0.00184547
-8.36727273,-0.33833660,-3.35260800,3.59867100,0.00098425
-8.28727273,-0.27682080,-3.70632400,3.66018700,0.00033834
-8.20727273,-0.10765260,-3.89087100,3.81397600,0.00003076
-8.12727273,0.13841040,-3.90625000,4.06003900,0.00006152
-8.04727273,0.49212600,-3.75246000,4.41375400,0.00046137
-7.96727273,0.92273620,-3.44488200,4.85974400,0.00116880
-7.88727273,1.43024100,-3.02965000,5.38262700,0.00218381
-7.80727272,1.96850400,-2.52214600,5.92089000,0.00335261
-7.72727272,2.52214600,-1.96850400,6.47453200,0.00455217
-7.64727272,3.01427100,-1.43024100,6.96665800,0.00572097
-7.56727272,3.44488200,-0.92273620,7.38188900,0.00670522
-7.48727272,3.73708200,-0.47674700,7.67408900,0.00741265
-7.40727272,3.90625000,-0.13841040,7.82787800,0.00778174
-7.32727272,3.90625000,0.10765260,7.82787800,0.00778174
-7.24727272,3.73708200,0.23068400,7.67408900,0.00741265
-7.16727272,3.44488200,0.24606300,7.38188900,0.00670522
-7.08727272,3.01427100,0.18454720,6.96665800,0.00572097
-7.00727271,2.52214600,0.06151574,6.47453200,0.00455217
-6.92727271,1.96850400,-0.06151574,5.92089000,0.00335261
-6.84727271,1.43024100,-0.18454720,5.38262700,0.00218381
-6.76727271,0.92273620,-0.24606300,4.85974400,0.00116880
-6.68727271,0.49212600,-0.23068400,4.41375400,0.00046137
-6.60727271,0.13841040,-0.10765260,4.06003900,0.00006152
-6.52727271,-0.10765260,0.13841040,3.81397600,0.00003076
-6.44727271,-0.27682080,0.47674700,3.66018700,0.00033834
-6.36727271,-0.33833660,0.92273620,3.59867100,0.00098425
-6.28727270,-0.35371550,1.43024100,3.59867100,0.00184547
-6.20727270,-0.30757870,1.96850400,3.64480800,0.00286048
-6.12727270,-0.23068400,2.52214600,3.72170300,0.00396777
-6.04727270,-0.16916830,3.01427100,3.78321800,0.00501353
-5.96727270,-0.09227362,3.42950300,3.82935500,0.00602854
-5.88727270,-0.04613681,3.73708200,3.87549200,0.00688976
-5.80727270,-0.01537894,3.89087100,3.90625000,0.00756644
-5.72727270,0.00000000,3.90625000,3.93700800,0.00805856
-5.64727270,0.01537894,3.78321800,3.98314500,0.00839690
-5.56727269,0.00000000,3.53715500,4.04466000,0.00855069
-5.48727269,0.00000000,3.18344000,4.10617600,0.00858145
-5.40727269,0.00000000,2.75283000,4.18307100,0.00851993
-5.32727269,0.00000000,2.27608300,4.25996500,0.00836614
-5.24727269,0.00000000,1.76857800,4.29072300,0.00821235
-5.16727269,0.00000000,1.26107300,4.27534400,0.00805856
-5.08727269,0.00000000,0.75356790,4.19845000,0.00793553
-5.00727269,0.00000000,0.24606300,4.02928100,0.00787402
-4.92727269,0.00000000,-0.24606300,3.78321800,0.00784326
-4.84727269,0.00000000,-0.70743110,3.44488200,0.00784326
-4.76727268,0.00000000,-1.16879900,3.01427100,0.00787402
-4.68727268,0.00000000,-1.61478800,2.50676700,0.00787402
-4.60727268,0.00000000,-2.04539800,1.98388300,0.00790477
-4.52727268,0.00000000,-2.44525100,1.43024100,0.00790477
-4.44727268,0.00000000,-2.84510300,0.92273620,0.00790477
-4.36727268,0.00000000,-3.21419800,0.49212600,0.00787402
-4.28727268,0.00000000,-3.53715500,0.18454720,0.00784326
-4.20727268,0.00000000,-3.81397600,0.01537894,0.00784326
-4.12727268,0.00000000,-4.01390200,0.01537894,0.00784326
-4.04727267,0.00000000,-4.13693400,0.18454720,0.00784326
-3.96727267,0.00000000,-4.16769200,0.49212600,0.00787402
-3.88727267,0.00000000,-4.12155500,0.92273620,0.00790477
-3.80727267,0.00000000,-4.01390200,1.43024100,0.00790477
-3.72727267,0.00000000,-3.89087100,1.98388300,0.00790477
-3.64727267,0.00000000,-3.75246000,2.50676700,0.00787402
-3.56727267,0.00000000,-3.67556500,2.99889300,0.00787402
-3.48727267,-0.01537894,-3.69094500,3.42950300,0.00784326
-3.40727267,0.00000000,-3.81397600,3.78321800,0.00784326
-3.32727266,0.01537894,-4.06003900,4.04466000,0.00787402
-3.24727266,0.04613681,-4.44451300,4.24458600,0.00793553
-3.16727266,0.09227362,-4.95201700,4.36761800,0.00805856
-3.08727266,0.16916830,-5.53641700,4.45989200,0.00821235
-3.00727266,0.23068400,-6.16695300,4.49065000,0.00836614
-2.92727266,0.30757870,-6.78211100,4.49065000,0.00851993
-2.84727266,0.35371550,-7.30499500,4.45989200,0.00858145
-2.76727266,0.33833660,-7.72022600,4.36761800,0.00855069
-2.68727266,0.27682080,-7.93553100,4.24458600,0.00839690
-2.60727266,0.10765260,-7.93553100,4.04466000,0.00805856
-2.52727265,-0.13841040,-7.68946800,3.78321800,0.00756644
-2.44727265,-0.49212600,-7.22810000,3.42950300,0.00688976
-2.36727265,-0.92273620,-6.55142700,2.99889300,0.00602854
-2.28727265,-1.43024100,-5.69020700,2.50676700,0.00501353
-2.20727265,-1.96850400,-4.73671200,1.98388300,0.00396777
-2.12727265,-2.52214600,-3.70632400,1.43024100,0.00286048
-2.04727265,-3.01427100,-2.70669300,0.92273620,0.00184547
-1.96727265,-3.44488200,-1.75319900,0.50750490,0.00098425
-1.88727265,-3.73708200,-0.93811510,0.19992620,0.00036909
-1.80727264,-3.90625000,-0.26144190,0.03075787,0.00003076
-1.72727264,-3.90625000,0.21530510,0.00000000,0.00003076
-1.64727264,-3.73708200,0.53826270,0.09227362,0.00036909
-1.56727264,-3.44488200,0.67667320,0.30757870,0.00098425
-1.48727264,-3.01427100,0.69205210,0.59977850,0.00184547
-1.40727264,-2.52214600,0.61515740,0.95349410,0.00286048
-1.32727264,-1.96850400,0.47674700,1.36872500,0.00396777
-1.24727264,-1.43024100,0.32295760,1.90698800,0.00501353
-1.16727264,-0.92273620,0.18454720,2.62979800,0.00602854
-1.08727263,-0.49212600,0.09227362,3.33722900,0.00688976
-1.00727263,-0.13841040,0.01537894,3.84473400,0.00756644
-0.92727263,0.10765260,-0.01537894,3.86011300,0.00805856
-0.84727263,0.27682080,-0.01537894,3.18344000,0.00839690
-0.76727263,0.33833660,-0.01537894,1.75319900,0.00855069
-0.68727263,0.35371550,0.00000000,-0.30757870,0.00858145
-0.60727263,0.30757870,0.00000000,-2.69131400,0.00851993
-0.52727263,0.23068400,0.00000000,-4.76747000,0.00836614
-0.44727263,0.15378940,0.00000000,-5.69020700,0.00821235
-0.36727263,0.07689468,0.00000000,-4.50602900,0.00805856
-0.28727262,0.00000000,-0.01537894,-0.50750490,0.00793553
-0.20727262,-0.01537894,0.00000000,6.79749000,0.00787402
-0.12727262,0.03075787,0.01537894,17.60888000,0.00784326
-0.04727262,0.16916830,0.04613681,31.77288000,0.00784326
0.03272738,0.36909450,0.09227362,48.81274000,0.00787402
0.11272738,0.64591530,0.16916830,68.02103000,0.00787402
0.19272738,0.95349410,0.23068400,88.45964000,0.00790477
0.27272738,1.21493600,0.30757870,109.14430000,0.00790477
0.35272738,1.32258800,0.33833660,129.16770000,0.00787402
0.43272739,1.15342000,0.33833660,147.69930000,0.00787402
0.51272739,0.76894680,0.26144190,164.18550000,0.00784326
0.59272739,0.24606300,0.10765260,178.25720000,0.00784326
0.67272739,-0.23068400,-0.12303150,189.80680000,0.00787402
0.75272739,-0.52288380,-0.44598910,198.89580000,0.00793553
0.83272739,-0.56902060,-0.83046260,205.69330000,0.00805856
0.91272739,-0.36909450,-1.26107300,210.43000000,0.00821235
0.99272739,-0.09227362,-1.73782000,213.27510000,0.00836614
1.07272739,-0.03075787,-2.21456700,214.29010000,0.00851993
1.15272739,-0.84584150,-2.69131400,213.41350000,0.00855069
1.23272740,-3.09116600,-3.13730300,210.44540000,0.00848917
1.31272740,-6.98203700,-3.53715500,205.13960000,0.00830463
1.39272740,-12.44156000,-3.82935500,197.20410000,0.00799705
1.47272740,-19.22367000,-3.98314500,186.46960000,0.00765871
1.55272740,-26.97465000,-3.96776600,172.87460000,0.00732037
1.63272740,-35.27928000,-3.79859700,156.57290000,0.00698204
1.71272740,-43.89148000,-3.47564000,137.97980000,0.00664370
1.79272740,-52.74975000,-3.07578700,117.71040000,0.00633612
1.87272740,-62.10014000,-2.66055600,96.61047000,0.00590551
1.95272741,-72.75774000,-2.46063000,75.61823000,0.00516732
2.03272741,-85.56840000,-2.61441900,55.67175000,0.00390625
2.11272741,-100.99350000,-3.06040800,37.64764000,0.00230684
2.19272741,-119.26360000,-3.64480800,22.25332000,0.00070743
2.27272741,-140.27130000,-4.15231300,9.90403500,-0.00055364
2.35272741,-163.61650000,-4.36761800,0.72281000,-0.00113804
2.43272741,-188.69960000,-4.18307100,-5.45952300,-0.00086122
2.51272741,-214.78220000,-3.62942900,-9.08895100,0.00021531
2.59272741,-241.08020000,-2.93737700,-10.76525000,0.00159941
2.67272742,-266.96300000,-2.55290300,-11.25738000,0.00249139
2.75272742,-292.21510000,-3.32185000,-11.28814000,0.00150714
2.83272742,-316.69850000,-6.07468000,-11.27276000,-0.00276821
2.91272742,-340.13600000,-11.19587000,-11.38041000,-0.01107283
2.99272742,-362.18930000,-18.82382000,-11.64185000,-0.02359129
3.07272742,-382.61250000,-28.78937000,-11.87254000,-0.04010827
3.15272742,-401.09800000,-40.72342000,-11.88792000,-0.06000861
3.23272742,-417.41510000,-54.11848000,-11.47269000,-0.08246186
3.31272742,-431.39450000,-68.48240000,-10.51919000,-0.10663760
3.39272742,-442.97490000,-83.46149000,-9.01205700,-0.13185900
3.47272743,-452.18690000,-98.94807000,-7.18196300,-0.15791090
3.55272743,-459.29190000,-115.31130000,-5.29035400,-0.18522390
3.63272743,-464.62840000,-133.02780000,-3.49101900,-0.21447460
3.71272743,-468.27320000,-152.34370000,-1.89160900,-0.24603220
3.79272743,-470.30330000,-173.28990000,-0.56902060,-0.28011200
3.87272743,-470.64160000,-195.75850000,0.49212600,-0.31668310
3.95272743,-469.18060000,-219.44200000,1.29183100,-0.35534570
4.03272743,-465.78180000,-243.83300000,1.87623000,-0.39542320
4.11272743,-460.35310000,-268.34710000,2.32221900,-0.43593140
4.19272744,-452.86350000,-292.38430000,2.64517700,-0.47573200
4.27272744,-443.32860000,-315.42200000,2.92199800,-0.51359500
4.35272744,-431.99430000,-337.16780000,3.16806100,-0.54850520
4.43272744,-419.27590000,-357.46800000,3.38336600,-0.57963220
4.51272744,-405.65020000,-376.04570000,3.59867100,-0.60605320
4.59272744,-391.53230000,-392.60890000,3.81397600,-0.62706080
4.67272744,-377.24530000,-406.97280000,4.02928100,-0.64228590
4.75272744,-363.01980000,-418.93760000,4.19845000,-0.65157480
4.83272744,-348.88650000,-428.38020000,4.35223900,-0.65505050
4.91272745,-334.73790000,-435.23930000,4.44451300,-0.65308200
4.99272745,-320.42010000,-439.51460000,4.49065000,-0.64619220
5.07272745,-305.48720000,-441.29860000,4.49065000,-0.63502710
5.15272745,-289.66230000,-440.79110000,4.45989200,-0.62032480
5.23272745,-273.12990000,-438.22280000,4.36761800,-0.60276200
5.31272745,-256.25920000,-433.74750000,4.24458600,-0.58283100
5.39272745,-239.55770000,-427.44210000,4.04466000,-0.56083910
5.47272745,-223.51750000,-419.33750000,3.78321800,-0.53697100
5.55272745,-208.53840000,-409.43340000,3.42950300,-0.51131890
5.63272745,-194.82040000,-397.73010000,2.99889300,-0.48385210
5.71272746,-182.36340000,-384.27350000,2.50676700,-0.45469360
5.79272746,-170.90610000,-369.17140000,1.98388300,-0.42399730
5.87272746,-159.78710000,-352.54670000,1.43024100,-0.39197840
5.95272746,-148.36060000,-334.70720000,0.92273620,-0.35909820
6.03272746,-136.48810000,-316.19090000,0.49212600,-0.32624880
6.11272746,-124.27720000,-297.58240000,0.18454720,-0.29447590
6.19272746,-111.97400000,-279.41990000,0.01537894,-0.26482530
6.27272746,-99.94771000,-262.13400000,0.01537894,-0.23806590
6.35272746,-88.58267000,-245.98610000,0.18454720,-0.21472070
6.43272747,-78.09424000,-231.03780000,0.49212600,-0.19488190
6.51272747,-68.65157000,-217.15060000,0.92273620,-0.17824190
6.59272747,-60.16240000,-204.03230000,1.43024100,-0.16409330
6.67272747,-52.24224000,-191.14480000,1.98388300,-0.15123650
6.75272747,-44.52202000,-178.05730000,2.52214600,-0.13859500
6.83272747,-36.95558000,-164.83140000,3.01427100,-0.12583050
6.91272747,-29.65059000,-151.77470000,3.44488200,-0.11294290
6.99272747,-22.79158000,-139.25630000,3.78321800,-0.10023990
7.07272747,-16.62463000,-127.76820000,4.02928100,-0.08827510
7.15272748,-11.33428000,-117.64890000,4.15231300,-0.07747909
7.23272748,-7.05893100,-109.08280000,4.18307100,-0.06825172
7.31272748,-3.78321800,-102.07000000,4.13693400,-0.06077756
7.39272748,-1.46099900,-96.31828000,4.01390200,-0.05487205
7.47272748,0.26144190,-91.18171000,3.89087100,-0.04995079
7.55272748,1.63016700,-86.04515000,3.76783900,-0.04536786
7.63272748,2.70669300,-80.69328000,3.69094500,-0.04100025
7.71272748,3.49101900,-75.12610000,3.70632400,-0.03681717
7.79272748,3.89087100,-69.46665000,3.81397600,-0.03306472
7.87272748,3.81397600,-63.97637000,4.06003900,-0.02989665
7.95272749,3.13730300,-58.90133000,4.39837600,-0.02755906
8.03272749,1.84547200,-54.44143000,4.85974400,-0.02620571
8.11272749,-0.04613681,-50.67359000,5.36724900,-0.02580586
8.19272749,-2.44525100,-47.55167000,5.92089000,-0.02626722
8.27272749,-5.09042800,-44.75270000,6.47453200,-0.02722072
8.35272749,-7.78174200,-41.92298000,6.96665800,-0.02826649
8.43272749,-10.36540000,-38.98560000,7.38188900,-0.02931225
8.51272749,-12.73376000,-35.92520000,7.67408900,-0.03020423
8.59272749,-14.79454000,-32.86478000,7.82787800,-0.03100394
8.67272750,-16.50160000,-29.94279000,7.81250000,-0.03174213
8.75272750,-17.87033000,-27.32837000,7.62795300,-0.03248031
8.83272750,-18.93147000,-25.09842000,7.28961600,-0.03324926
8.91272750,-19.73118000,-23.28371000,6.79749000,-0.03414124
8.99272750,-20.33095000,-21.85347000,6.22846900,-0.03509473
9.07272750,-20.80770000,-20.54626000,5.62869100,-0.03604823
9.15272750,-21.25369000,-19.13140000,5.02891200,-0.03690945
9.23272750,-21.74582000,-17.45509000,4.50602900,-0.03764764
9.31272750,-22.36097000,-15.44045000,4.13693400,-0.03832431
9.39272751,-23.09916000,-13.07210000,3.93700800,-0.03893947
9.47272751,-24.00652000,-10.38078000,3.95238700,-0.03952387
9.55272751,-25.02153000,-7.45878400,4.18307100,-0.04013903
9.63272751,-26.11343000,-4.38299700,4.61368100,-0.04078494
9.71272751,-27.22072000,-1.24569400,5.19808000,-0.04143086
9.79272751,-28.26648000,1.83009300,5.85937500,-0.04201525
9.87272751,-29.21998000,4.82898600,6.53604800,-0.04241511
9.95272751,-30.01968000,7.70484700,7.15120500,-0.04253814
10.03272751,-30.65022000,10.38078000,7.62795300,-0.04219980
10.11272751,-31.08083000,12.76452000,7.90477300,-0.04140010
10.19272752,-31.32689000,14.80992000,7.93553100,-0.04007751
10.27272752,-31.40379000,16.47084000,7.68946800,-0.03823204
10.35272752,-31.34227000,17.70115000,7.19734200,-0.03586368
10.43272752,-31.15772000,18.53162000,6.45915300,-0.03309547
10.51272752,-30.85015000,18.99298000,5.53641700,-0.02995817
10.59272752,-30.40416000,19.11602000,4.49065000,-0.02657480
10.67272752,-29.78900000,18.99298000,3.41412400,-0.02303765
10.75272752,-28.92778000,18.62389000,2.35297700,-0.01940822
10.83272752,-27.78974000,18.05487000,1.41486200,-0.01584031
10.91272753,-26.31336000,17.27055000,0.67667320,-0.01242618
10.99272753,-24.54478000,16.27091000,0.15378940,-0.00928888
11.07272753,-22.46863000,15.05598000,-0.09227362,-0.00648991
11.15272753,-20.13103000,13.64112000,-0.09227362,-0.00409080
11.23272753,-17.59350000,12.02633000,0.15378940,-0.00206078
11.31272753,-14.91757000,10.24237000,0.58439960,-0.00039985
11.39272753,-12.11860000,8.30462600,1.12266200,0.00101501
11.47272753,-9.25812000,6.25922700,1.73782000,0.00224533
11.55272753,-6.33612200,4.12155500,2.35297700,0.00341412
11.63272753,-3.36798700,1.87623000,2.92199800,0.00464444
11.71272754,-0.39985230,-0.41523130,3.39874500,0.00590551
