Time,Channel A,Channel B,Channel C,Channel D
(ns),(mV),(mV),(mV),(V)

-15.85454583,-4.15231300,-0.12303150,7.82787800,0.00759720
-15.77454582,-4.50602900,-0.39985230,7.67408900,0.00698204
-15.69454582,-4.70595500,-0.73818890,7.38188900,0.00621309
-15.61454582,-4.79822800,-1.10728300,6.96665800,0.00535187
-15.53454582,-4.79822800,-1.50713600,6.47453200,0.00442913
-15.45454582,-4.73671200,-1.90698800,5.92089000,0.00347564
-15.37454582,-4.61368100,-2.33759800,5.38262700,0.00255290
-15.29454582,-4.45989200,-2.76820900,4.85974400,0.00166093
-15.21454582,-4.27534400,-3.21419800,4.41375400,0.00092274
-15.13454582,-4.04466000,-3.67556500,4.06003900,0.00027682
-15.05454581,-3.78321800,-4.16769200,3.81397600,-0.00024606
-14.97454581,-3.46026100,-4.67519700,3.66018700,-0.00061516
-14.89454581,-3.09116600,-5.19808000,3.59867100,-0.00086122
-14.81454581,-2.67593500,-5.72096400,3.59867100,-0.00101501
-14.73454581,-2.21456700,-6.22846900,3.64480800,-0.00107653
-14.65454581,-1.73782000,-6.70521600,3.72170300,-0.00107653
-14.57454581,-1.26107300,-7.13582600,3.78321800,-0.00101501
-14.49454581,-0.83046260,-7.47416300,3.84473400,-0.00086122
-14.41454581,-0.44598910,-7.72022600,3.89087100,-0.00061516
-14.33454580,-0.12303150,-7.82787800,3.90625000,-0.00024606
-14.25454580,0.10765260,-7.81250000,3.92162900,0.00027682
-14.17454580,0.26144190,-7.65871000,3.93700800,0.00092274
-14.09454580,0.33833660,-7.36651000,3.93700800,0.00166093
-14.01454580,0.33833660,-6.96665800,3.95238700,0.00255290
-13.93454580,0.30757870,-6.47453200,3.95238700,0.00347564
-13.85454580,0.23068400,-5.92089000,3.95238700,0.00442913
-13.77454580,0.15378940,-5.38262700,3.95238700,0.00535187
-13.69454580,0.09227362,-4.85974400,3.93700800,0.00621309
-13.61454580,0.03075787,-4.41375400,3.92162900,0.00698204
-13.53454579,0.00000000,-4.06003900,3.92162900,0.00759720
-13.45454579,0.00000000,-3.81397600,3.92162900,0.00805856
-13.37454579,0.03075787,-3.66018700,3.92162900,0.00836614
-13.29454579,0.09227362,-3.59867100,3.93700800,0.00855069
-13.21454579,0.15378940,-3.59867100,3.95238700,0.00858145
-13.13454579,0.23068400,-3.64480800,3.95238700,0.00851993
-13.05454579,0.30757870,-3.72170300,3.95238700,0.00836614
-12.97454579,0.35371550,-3.78321800,3.95238700,0.00821235
-12.89454579,0.33833660,-3.82935500,3.93700800,0.00805856
-12.81454578,0.27682080,-3.87549200,3.92162900,0.00793553
-12.73454578,0.10765260,-3.90625000,3.92162900,0.00787402
-12.65454578,-0.13841040,-3.93700800,3.92162900,0.00784326
-12.57454578,-0.49212600,-3.98314500,3.92162900,0.00784326
-12.49454578,-0.92273620,-4.04466000,3.93700800,0.00787402
-12.41454578,-1.43024100,-4.10617600,3.95238700,0.00787402
-12.33454578,-1.96850400,-4.18307100,3.95238700,0.00790477
-12.25454578,-2.52214600,-4.25996500,3.95238700,0.00790477
-12.17454578,-3.01427100,-4.29072300,3.95238700,0.00790477
-12.09454577,-3.44488200,-4.27534400,3.93700800,0.00787402
-12.01454577,-3.73708200,-4.18307100,3.93700800,0.00784326
-11.93454577,-3.90625000,-4.02928100,3.92162900,0.00784326
-11.85454577,-3.90625000,-3.79859700,3.90625000,0.00784326
-11.77454577,-3.73708200,-3.49101900,3.89087100,0.00784326
-11.69454577,-3.44488200,-3.10654500,3.84473400,0.00787402
-11.61454577,-3.01427100,-2.67593500,3.78321800,0.00790477
-11.53454577,-2.52214600,-2.21456700,3.72170300,0.00790477
-11.45454577,-1.96850400,-1.73782000,3.64480800,0.00790477
-11.37454577,-1.43024100,-1.27645200,3.59867100,0.00790477
-11.29454576,-0.92273620,-0.83046260,3.58329200,0.00787402
-11.21454576,-0.49212600,-0.46136810,3.64480800,0.00784326
-11.13454576,-0.13841040,-0.13841040,3.79859700,0.00784326
-11.05454576,0.10765260,0.12303150,4.07541800,0.00784326
-10.97454576,0.27682080,0.30757870,4.45989200,0.00784326
-10.89454576,0.33833660,0.43061020,4.95201700,0.00787402
-10.81454576,0.35371550,0.50750490,5.53641700,0.00790477
-10.73454576,0.30757870,0.53826270,6.16695300,0.00790477
-10.65454576,0.23068400,0.53826270,6.78211100,0.00790477
-10.57454575,0.15378940,0.50750490,7.32037400,0.00790477
-10.49454575,0.09227362,0.43061020,7.72022600,0.00787402
-10.41454575,0.03075787,0.30757870,7.93553100,0.00784326
-10.33454575,0.00000000,0.12303150,7.93553100,0.00784326
-10.25454575,0.00000000,-0.13841040,7.68946800,0.00784326
-10.17454575,0.03075787,-0.46136810,7.18196300,0.00784326
-10.09454575,0.09227362,-0.83046260,6.45915300,0.00787402
-10.01454575,0.15378940,-1.27645200,5.53641700,0.00790477
-9.93454575,0.23068400,-1.73782000,4.49065000,0.00790477
-9.85454574,0.30757870,-2.21456700,3.41412400,0.00790477
-9.77454574,0.35371550,-2.67593500,2.35297700,0.00787402
-9.69454574,0.33833660,-3.10654500,1.43024100,0.00787402
-9.61454574,0.27682080,-3.49101900,0.67667320,0.00784326
-9.53454574,0.10765260,-3.79859700,0.16916830,0.00784326
-9.45454574,-0.13841040,-4.02928100,-0.10765260,0.00787402
-9.37454574,-0.49212600,-4.18307100,-0.12303150,0.00793553
-9.29454574,-0.92273620,-4.27534400,0.06151574,0.00805856
-9.21454574,-1.43024100,-4.29072300,0.41523130,0.00821235
-9.13454574,-1.96850400,-4.25996500,0.89197830,0.00836614
-9.05454573,-2.52214600,-4.18307100,1.43024100,0.00851993
-8.97454573,-3.01427100,-4.10617600,1.99926200,0.00858145
-8.89454573,-3.44488200,-4.02928100,2.56828200,0.00855069
-8.81454573,-3.73708200,-3.96776600,3.12192400,0.00839690
-8.73454573,-3.90625000,-3.93700800,3.66018700,0.00805856
-8.65454573,-3.90625000,-3.92162900,4.18307100,0.00756644
-8.57454573,-3.73708200,-3.92162900,4.69057600,0.00688976
-8.49454573,-3.44488200,-3.93700800,5.21345900,0.00602854
-8.41454573,-3.01427100,-3.93700800,5.72096400,0.00501353
-8.33454572,-2.52214600,-3.95238700,6.22846900,0.00396777
-8.25454572,-1.96850400,-3.95238700,6.70521600,0.00286048
-8.17454572,-1.43024100,-3.93700800,7.13582600,0.00184547
-8.09454572,-0.92273620,-3.93700800,7.47416300,0.00098425
-8.01454572,-0.49212600,-3.92162900,7.72022600,0.00036909
-7.93454572,-0.13841040,-3.92162900,7.84325700,0.00003076
-7.85454572,0.10765260,-3.93700800,7.81250000,0.00003076
-7.77454572,0.27682080,-3.96776600,7.61257400,0.00036909
-7.69454572,0.33833660,-4.02928100,7.27423700,0.00098425
-7.61454572,0.35371550,-4.10617600,6.79749000,0.00184547
-7.53454571,0.30757870,-4.18307100,6.22846900,0.00286048
-7.45454571,0.23068400,-4.25996500,5.62869100,0.00396777
-7.37454571,0.16916830,-4.29072300,5.02891200,0.00504429
-7.29454571,0.10765260,-4.27534400,4.52140800,0.00602854
-7.21454571,0.04613681,-4.19845000,4.15231300,0.00688976
-7.13454571,0.01537894,-4.02928100,3.95238700,0.00756644
-7.05454571,-0.01537894,-3.78321800,3.95238700,0.00805856
-6.97454571,-0.04613681,-3.44488200,4.15231300,0.00830463
-6.89454571,-0.10765260,-3.01427100,4.52140800,0.00836614
-6.81454570,-0.16916830,-2.50676700,5.02891200,0.00827387
-6.73454570,-0.23068400,-1.98388300,5.62869100,0.00802781
-6.65454570,-0.30757870,-1.43024100,6.22846900,0.00778174
-6.57454570,-0.35371550,-0.92273620,6.79749000,0.00753568
-6.49454570,-0.33833660,-0.50750490,7.28961600,0.00738189
-6.41454570,-0.27682080,-0.19992620,7.62795300,0.00741265
-6.33454570,-0.10765260,-0.03075787,7.81250000,0.00762795
-6.25454570,0.13841040,-0.01537894,7.82787800,0.00812008
-6.17454570,0.49212600,-0.13841040,7.67408900,0.00879675
-6.09454569,0.92273620,-0.39985230,7.38188900,0.00971949
-6.01454569,1.43024100,-0.76894680,6.96665800,0.01073450
-5.93454569,1.96850400,-1.19955700,6.47453200,0.01184178
-5.85454569,2.52214600,-1.67630400,5.92089000,0.01294907
-5.77454569,3.01427100,-2.16843000,5.36724900,0.01393332
-5.69454569,3.42950300,-2.67593500,4.85974400,0.01476378
-5.61454569,3.73708200,-3.16806100,4.39837600,0.01534818
-5.53454569,3.89087100,-3.67556500,4.06003900,0.01565576
-5.45454569,3.90625000,-4.16769200,3.81397600,0.01565576
-5.37454569,3.78321800,-4.69057600,3.70632400,0.01534818
-5.29454568,3.53715500,-5.19808000,3.69094500,0.01476378
-5.21454568,3.18344000,-5.72096400,3.76783900,0.01393332
-5.13454568,2.75283000,-6.22846900,3.89087100,0.01294907
-5.05454568,2.27608300,-6.70521600,4.01390200,0.01184178
-4.97454568,1.78395700,-7.13582600,4.13693400,0.01073450
-4.89454568,1.26107300,-7.47416300,4.18307100,0.00971949
-4.81454568,0.75356790,-7.72022600,4.15231300,0.00879675
-4.73454568,0.24606300,-7.84325700,4.02928100,0.00812008
-4.65454568,-0.24606300,-7.81250000,3.78321800,0.00762795
-4.57454567,-0.75356790,-7.61257400,3.44488200,0.00741265
-4.49454567,-1.26107300,-7.27423700,3.01427100,0.00738189
-4.41454567,-1.78395700,-6.79749000,2.52214600,0.00753568
-4.33454567,-2.27608300,-6.22846900,1.98388300,0.00778174
-4.25454567,-2.75283000,-5.62869100,1.43024100,0.00802781
-4.17454567,-3.18344000,-5.02891200,0.92273620,0.00827387
-4.09454567,-3.53715500,-4.50602900,0.49212600,0.00836614
-4.01454567,-3.79859700,-4.13693400,0.18454720,0.00830463
-3.93454567,-3.92162900,-3.93700800,0.01537894,0.00805856
-3.85454566,-3.89087100,-3.95238700,0.01537894,0.00756644
-3.77454566,-3.69094500,-4.18307100,0.18454720,0.00688976
-3.69454566,-3.33722900,-4.61368100,0.49212600,0.00602854
-3.61454566,-2.86048200,-5.19808000,0.92273620,0.00504429
-3.53454566,-2.27608300,-5.85937500,1.43024100,0.00396777
-3.45454566,-1.67630400,-6.53604800,1.98388300,0.00286048
-3.37454566,-1.09190400,-7.15120500,2.50676700,0.00184547
-3.29454566,-0.58439960,-7.62795300,2.99889300,0.00098425
-3.21454566,-0.21530510,-7.90477300,3.42950300,0.00036909
-3.13454566,-0.03075787,-7.93553100,3.78321800,0.00003076
-3.05454565,-0.03075787,-7.68946800,4.04466000,0.00003076
-2.97454565,-0.21530510,-7.15120500,4.24458600,0.00036909
-2.89454565,-0.58439960,-6.36687900,4.36761800,0.00098425
-2.81454565,-1.09190400,-5.38262700,4.45989200,0.00184547
-2.73454565,-1.67630400,-4.25996500,4.49065000,0.00286048
-2.65454565,-2.27608300,-3.10654500,4.49065000,0.00396777
-2.57454565,-2.86048200,-2.01464100,4.45989200,0.00501353
-2.49454565,-3.35260800,-1.07652500,4.36761800,0.00602854
-2.41454565,-3.70632400,-0.39985230,4.24458600,0.00688976
-2.33454564,-3.89087100,-0.04613681,4.04466000,0.00756644
-2.25454564,-3.90625000,-0.04613681,3.78321800,0.00805856
-2.17454564,-3.75246000,-0.39985230,3.42950300,0.00839690
-2.09454564,-3.44488200,-1.07652500,2.99889300,0.00855069
-2.01454564,-3.02965000,-2.01464100,2.50676700,0.00858145
-1.93454564,-2.52214600,-3.10654500,1.98388300,0.00851993
-1.85454564,-1.96850400,-4.25996500,1.43024100,0.00836614
-1.77454564,-1.43024100,-5.38262700,0.93811510,0.00821235
-1.69454564,-0.92273620,-6.36687900,0.56902060,0.00805856
-1.61454563,-0.49212600,-7.15120500,0.29219980,0.00793553
-1.53454563,-0.13841040,-7.68946800,0.09227362,0.00787402
-1.45454563,0.10765260,-7.93553100,-0.09227362,0.00784326
-1.37454563,0.27682080,-7.90477300,-0.29219980,0.00784326
-1.29454563,0.33833660,-7.62795300,-0.55364170,0.00787402
-1.21454563,0.35371550,-7.15120500,-0.86122040,0.00787402
-1.13454563,0.30757870,-6.53604800,-1.16879900,0.00790477
-1.05454563,0.23068400,-5.85937500,-1.36872500,0.00790477
-0.97454563,0.15378940,-5.19808000,-1.15342000,0.00790477
-0.89454563,0.09227362,-4.61368100,-0.26144190,0.00787402
-0.81454562,0.03075787,-4.18307100,1.19955700,0.00784326
-0.73454562,0.00000000,-3.95238700,2.99889300,0.00784326
-0.65454562,0.00000000,-3.95238700,4.79822800,0.00784326
-0.57454562,0.03075787,-4.18307100,6.28998500,0.00784326
-0.49454562,0.09227362,-4.61368100,7.24347900,0.00787402
-0.41454562,0.15378940,-5.19808000,7.68946800,0.00790477
-0.33454562,0.23068400,-5.85937500,7.98166800,0.00790477
-0.25454562,0.30757870,-6.53604800,8.76599300,0.00790477
-0.17454562,0.32295760,-7.15120500,11.05746000,0.00790477
-0.09454561,0.27682080,-7.61257400,16.02485000,0.00787402
-0.01454561,0.16916830,-7.88939400,24.79084000,0.00787402
0.06545439,0.04613681,-7.92015200,38.32431000,0.00784326
0.14545439,-0.03075787,-7.70484700,57.17889000,0.00781250
0.22545439,-0.01537894,-7.24347900,81.43147000,0.00778174
0.30545439,0.12303150,-6.55142700,110.49770000,0.00768947
0.38545439,0.35371550,-5.70558500,143.17790000,0.00756644
0.46545439,0.63053640,-4.73671200,177.70360000,0.00744341
0.54545439,0.83046260,-3.70632400,211.90640000,0.00728962
0.62545439,0.67667320,-2.70669300,243.40240000,0.00719734
0.70545440,-0.07689468,-1.76857800,269.83880000,0.00719734
0.78545440,-1.35334600,-0.93811510,289.21620000,0.00732037
0.86545440,-3.02965000,-0.27682080,300.07380000,0.00762795
0.94545440,-4.81360700,0.23068400,301.61170000,0.00812008
1.02545440,-6.47453200,0.56902060,293.87610000,0.00882751
1.10545440,-7.82787800,0.76894680,277.65130000,0.00971949
1.18545440,-8.85826700,0.84584150,254.38300000,0.01076526
1.26545440,-9.79638200,0.84584150,226.05500000,0.01184178
1.34545440,-11.11897000,0.78432570,194.85110000,0.01294907
1.42545441,-13.76415000,0.64591530,162.95520000,0.01387180
1.50545441,-18.65465000,0.43061020,132.36650000,0.01457923
1.58545441,-26.29798000,0.19992620,104.65370000,0.01507136
1.66545441,-36.83255000,0.03075787,80.86244000,0.01547121
1.74545441,-50.11995000,0.01537894,61.45423000,0.01593258
1.82545441,-65.74496000,0.18454720,46.39825000,0.01654774
1.90545441,-83.12315000,0.58439960,35.15625000,0.01740896
1.98545441,-101.67020000,1.16879900,26.95927000,0.01848548
2.06545441,-120.86310000,1.81471400,20.88459000,0.01956201
2.14545442,-140.42510000,2.35297700,16.00947000,0.02036171
2.22545442,-160.61760000,2.38373500,11.62648000,0.02020792
2.30545442,-181.77900000,1.56865100,7.27423700,0.01848548
2.38545442,-204.01700000,-0.12303150,2.79896600,0.01519439
2.46545442,-227.28530000,-2.52214600,-1.72244100,0.01051919
2.54545442,-251.43020000,-5.39800600,-6.04392200,0.00501353
2.62545442,-276.09800000,-8.44303500,-9.85789800,-0.00089198
2.70545442,-300.82740000,-11.41117000,-12.90293000,-0.00676673
2.78545442,-325.11070000,-14.22552000,-14.99446000,-0.01242618
2.86545442,-348.40980000,-17.07062000,-16.13251000,-0.01814715
2.94545443,-370.27860000,-20.36171000,-16.60925000,-0.02476009
3.02545443,-390.59420000,-25.05229000,-16.77842000,-0.03371063
3.10545443,-409.26430000,-32.09584000,-16.73228000,-0.04669045
3.18545443,-426.05800000,-42.01525000,-16.50160000,-0.06465305
3.26545443,-440.71420000,-55.07197000,-16.04023000,-0.08815207
3.34545443,-452.95580000,-71.17371000,-15.25591000,-0.11712600
3.42545443,-462.58300000,-89.90526000,-14.08710000,-0.15105190
3.50545443,-469.42660000,-110.71300000,-12.47232000,-0.18891490
3.58545443,-473.45590000,-132.84320000,-10.42692000,-0.22939220
3.66545444,-474.71700000,-155.65020000,-8.02780400,-0.27116140
3.74545444,-473.44060000,-178.61100000,-5.44414400,-0.31299210
3.82545444,-470.02640000,-201.64860000,-2.87586100,-0.35417690
3.90545444,-464.95140000,-224.82470000,-0.49212600,-0.39425440
3.98545444,-458.58450000,-247.98540000,1.58403000,-0.43267100
4.06545444,-451.18720000,-271.00760000,3.26033400,-0.46905760
4.14545444,-442.91340000,-293.69150000,4.47527100,-0.50310650
4.22545444,-433.76290000,-315.77570000,5.21345900,-0.53457180
4.30545444,-423.68970000,-336.93710000,5.53641700,-0.56320740
4.38545445,-412.55530000,-356.83750000,5.50565900,-0.58879800
4.46545445,-400.22140000,-375.13840000,5.24421700,-0.61103590
4.54545445,-386.51880000,-391.56310000,4.82898600,-0.62955220
4.62545445,-371.46280000,-406.00390000,4.41375400,-0.64413140
4.70545445,-355.37650000,-418.41470000,4.07541800,-0.65446600
4.78545445,-338.72110000,-428.59560000,3.87549200,-0.66009470
4.86545445,-322.01950000,-436.37730000,3.86011300,-0.66067910
4.94545445,-305.71790000,-441.57540000,4.02928100,-0.65588090
5.02545445,-290.13900000,-444.06680000,4.36761800,-0.64563850
5.10545445,-275.43670000,-443.80530000,4.82898600,-0.63004430
5.18545446,-261.53420000,-440.80650000,5.36724900,-0.60952880
5.26545446,-248.15450000,-435.20850000,5.92089000,-0.58476870
5.34545446,-234.71330000,-427.25760000,6.47453200,-0.55656370
5.42545446,-220.68770000,-417.27670000,6.96665800,-0.52602120
5.50545446,-206.06240000,-405.77320000,7.38188900,-0.49421750
5.58545446,-191.03710000,-393.10100000,7.67408900,-0.46226010
5.66545446,-176.02730000,-379.61360000,7.82787800,-0.43097930
5.74545446,-161.46340000,-365.51120000,7.82787800,-0.40092890
5.82545446,-147.74540000,-350.93190000,7.67408900,-0.37238560
5.90545447,-135.15010000,-335.87600000,7.38188900,-0.34531860
5.98545447,-123.72350000,-320.31250000,6.96665800,-0.31948200
6.06545447,-113.34280000,-304.16460000,6.47453200,-0.29453740
6.14545447,-103.43870000,-287.26310000,5.92089000,-0.26983880
6.22545447,-93.51931000,-269.59270000,5.38262700,-0.24507870
6.30545447,-83.47687000,-251.52250000,4.87512300,-0.22056470
6.38545447,-73.41904000,-233.54450000,4.42913300,-0.19691190
6.46545447,-63.57652000,-216.18170000,4.06003900,-0.17488930
6.54545447,-54.25689000,-199.91080000,3.79859700,-0.15526570
6.62545448,-45.72158000,-185.08550000,3.61405000,-0.13859500
6.70545448,-38.17052000,-171.79810000,3.50639700,-0.12509230
6.78545448,-31.69599000,-160.00240000,3.42950300,-0.11463460
6.86545448,-26.19033000,-149.36020000,3.41412400,-0.10669910
6.94545448,-21.34596000,-139.25630000,3.41412400,-0.10011690
7.02545448,-16.82456000,-129.12160000,3.42950300,-0.09384228
7.10545448,-12.57997000,-118.87920000,3.49101900,-0.08738312
7.18545448,-8.70447700,-108.68290000,3.59867100,-0.08070866
7.26545448,-5.35187000,-98.82504000,3.79859700,-0.07391117
7.34545448,-2.69131400,-89.67458000,4.07541800,-0.06739050
7.42545449,-0.90735720,-81.60063000,4.47527100,-0.06151575
7.50545449,-0.06151574,-74.78777000,4.96739600,-0.05656373
7.58545449,-0.12303150,-69.26672000,5.53641700,-0.05271900
7.66545449,-0.95349410,-64.85297000,6.16695300,-0.04992003
7.74545449,-2.24532500,-61.02362000,6.78211100,-0.04773622
7.82545449,-3.66018700,-57.24040000,7.32037400,-0.04570620
7.90545449,-5.05967000,-53.30339000,7.72022600,-0.04373770
7.98545449,-6.32074300,-49.22798000,7.93553100,-0.04179995
8.06545449,-7.38188900,-45.13718000,7.93553100,-0.04001600
8.14545450,-8.27386800,-41.23093000,7.68946800,-0.03850886
8.22545450,-9.01205700,-37.73991000,7.18196300,-0.03743233
8.30545450,-9.67335100,-34.80253000,6.45915300,-0.03684793
8.38545450,-10.31927000,-32.51107000,5.53641700,-0.03675566
8.46545450,-10.98056000,-30.74249000,4.49065000,-0.03709400
8.54545450,-11.65723000,-29.23536000,3.41412400,-0.03761688
8.62545450,-12.38004000,-27.63595000,2.35297700,-0.03813976
8.70545450,-13.17975000,-25.74434000,1.43024100,-0.03857037
8.78545450,-14.10248000,-23.51439000,0.67667320,-0.03887795
8.86545451,-15.13287000,-20.97687000,0.16916830,-0.03912402
8.94545451,-16.27091000,-18.19328000,-0.10765260,-0.03933932
9.02545451,-17.47047000,-15.30204000,-0.12303150,-0.03961614
9.10545451,-18.71617000,-12.41080000,0.06151574,-0.03998524
9.18545451,-19.94648000,-9.61183500,0.41523130,-0.04044661
9.26545451,-21.16142000,-6.95127900,0.89197830,-0.04093873
9.34545451,-22.31484000,-4.36761800,1.43024100,-0.04133858
9.42545451,-23.43750000,-1.73782000,2.01464100,-0.04152313
9.50545451,-24.52940000,0.92273620,2.58366100,-0.04133858
9.58545451,-25.65207000,3.66018700,3.13730300,-0.04081570
9.66545452,-26.83624000,6.44377400,3.66018700,-0.03986220
9.74545452,-28.11270000,9.24274100,4.16769200,-0.03850886
9.82545452,-29.49680000,12.01095000,4.65981800,-0.03678642
9.90545452,-30.97318000,14.71764000,5.12118600,-0.03475640
9.98545452,-32.48031000,17.28592000,5.56717500,-0.03248031
10.06545452,-33.94131000,19.66966000,5.99778500,-0.03005044
10.14545452,-35.23314000,21.85347000,6.39763700,-0.02746678
10.22545452,-36.20201000,23.77584000,6.78211100,-0.02476009
10.30545452,-36.70952000,25.35987000,7.13582600,-0.02205340
10.38545453,-36.63263000,26.54404000,7.44340500,-0.01940822
10.46545453,-35.90981000,27.26685000,7.72022600,-0.01688607
10.54545453,-34.51033000,27.52830000,7.95091000,-0.01454847
10.62545453,-32.46494000,27.29761000,8.15083600,-0.01245694
10.70545453,-29.81976000,26.62094000,8.28924700,-0.01061147
10.78545453,-26.69783000,25.54441000,8.39689900,-0.00895054
10.86545453,-23.22219000,24.12955000,8.44303500,-0.00750492
10.94545453,-19.54663000,22.42249000,8.44303500,-0.00615158
11.02545453,-15.79417000,20.46936000,8.39689900,-0.00479823
11.10545453,-12.08784000,18.27018000,8.30462600,-0.00341412
