Time,Channel A,Channel B,Channel C,Channel D
(ns),(mV),(mV),(mV),(V)

-15.28571483,-4.04466000,-3.92162900,3.92162900,0.00784326
-15.20571482,-4.22920700,-3.92162900,3.92162900,0.00784326
-15.12571482,-4.36761800,-3.93700800,3.93700800,0.00787402
-15.04571482,-4.44451300,-3.95238700,3.95238700,0.00787402
-14.96571482,-4.49065000,-3.95238700,3.95238700,0.00790477
-14.88571482,-4.49065000,-3.95238700,3.95238700,0.00790477
-14.80571482,-4.44451300,-3.93700800,3.93700800,0.00790477
-14.72571482,-4.36761800,-3.93700800,3.93700800,0.00787402
-14.64571482,-4.22920700,-3.92162900,3.92162900,0.00787402
-14.56571482,-4.04466000,-3.92162900,3.92162900,0.00784326
-14.48571481,-3.78321800,-3.93700800,3.93700800,0.00781250
-14.40571481,-3.47564000,-3.96776600,3.96776600,0.00778174
-14.32571481,-3.10654500,-4.02928100,4.02928100,0.00768947
-14.24571481,-2.67593500,-4.10617600,4.10617600,0.00756644
-14.16571481,-2.21456700,-4.18307100,4.18307100,0.00744341
-14.08571481,-1.73782000,-4.25996500,4.25996500,0.00728962
-14.00571481,-1.26107300,-4.29072300,4.29072300,0.00719734
-13.92571481,-0.83046260,-4.27534400,4.27534400,0.00719734
-13.84571481,-0.44598910,-4.19845000,4.19845000,0.00732037
-13.76571480,-0.12303150,-4.02928100,4.02928100,0.00762795
-13.68571480,0.10765260,-3.78321800,3.78321800,0.00812008
-13.60571480,0.26144190,-3.44488200,3.44488200,0.00882751
-13.52571480,0.33833660,-3.01427100,3.01427100,0.00971949
-13.44571480,0.33833660,-2.50676700,2.50676700,0.01076526
-13.36571480,0.30757870,-1.98388300,1.98388300,0.01184178
-13.28571480,0.23068400,-1.43024100,1.43024100,0.01294907
-13.20571480,0.15378940,-0.92273620,0.92273620,0.01393332
-13.12571480,0.09227362,-0.49212600,0.49212600,0.01476378
-13.04571480,0.03075787,-0.18454720,0.18454720,0.01534818
-12.96571479,0.00000000,-0.01537894,0.01537894,0.01565576
-12.88571479,0.00000000,-0.01537894,0.01537894,0.01565576
-12.80571479,0.03075787,-0.18454720,0.18454720,0.01534818
-12.72571479,0.09227362,-0.49212600,0.49212600,0.01476378
-12.64571479,0.15378940,-0.92273620,0.92273620,0.01393332
-12.56571479,0.23068400,-1.43024100,1.43024100,0.01294907
-12.48571479,0.30757870,-1.98388300,1.98388300,0.01184178
-12.40571479,0.35371550,-2.50676700,2.50676700,0.01076526
-12.32571479,0.33833660,-3.01427100,3.01427100,0.00971949
-12.24571478,0.27682080,-3.44488200,3.44488200,0.00882751
-12.16571478,0.10765260,-3.78321800,3.78321800,0.00812008
-12.08571478,-0.13841040,-4.02928100,4.02928100,0.00762795
-12.00571478,-0.49212600,-4.19845000,4.19845000,0.00732037
-11.92571478,-0.92273620,-4.27534400,4.27534400,0.00719734
-11.84571478,-1.43024100,-4.29072300,4.29072300,0.00719734
-11.76571478,-1.96850400,-4.25996500,4.25996500,0.00728962
-11.68571478,-2.52214600,-4.18307100,4.18307100,0.00744341
-11.60571478,-3.01427100,-4.10617600,4.10617600,0.00756644
-11.52571477,-3.44488200,-4.02928100,4.02928100,0.00765871
-11.44571477,-3.73708200,-3.96776600,3.96776600,0.00775098
-11.36571477,-3.90625000,-3.93700800,3.92162900,0.00781250
-11.28571477,-3.90625000,-3.92162900,3.92162900,0.00787402
-11.20571477,-3.73708200,-3.92162900,3.96776600,0.00796629
-11.12571477,-3.44488200,-3.93700800,4.02928100,0.00808932
-11.04571477,-3.01427100,-3.93700800,4.10617600,0.00821235
-10.96571477,-2.52214600,-3.95238700,4.18307100,0.00836614
-10.88571477,-1.96850400,-3.95238700,4.25996500,0.00851993
-10.80571477,-1.43024100,-3.95238700,4.29072300,0.00858145
-10.72571476,-0.92273620,-3.93700800,4.27534400,0.00855069
-10.64571476,-0.49212600,-3.93700800,4.19845000,0.00836614
-10.56571476,-0.13841040,-3.92162900,4.02928100,0.00805856
-10.48571476,0.10765260,-3.90625000,3.78321800,0.00759720
-10.40571476,0.27682080,-3.89087100,3.44488200,0.00698204
-10.32571476,0.33833660,-3.84473400,3.01427100,0.00621309
-10.24571476,0.35371550,-3.78321800,2.50676700,0.00535187
-10.16571476,0.30757870,-3.72170300,1.98388300,0.00442913
-10.08571476,0.23068400,-3.64480800,1.43024100,0.00347564
-10.00571475,0.16916830,-3.59867100,0.92273620,0.00255290
-9.92571475,0.09227362,-3.58329200,0.49212600,0.00166093
-9.84571475,0.04613681,-3.64480800,0.18454720,0.00092274
-9.76571475,0.01537894,-3.79859700,0.01537894,0.00027682
-9.68571475,0.00000000,-4.07541800,0.01537894,-0.00024606
-9.60571475,-0.01537894,-4.45989200,0.18454720,-0.00061516
-9.52571475,0.00000000,-4.95201700,0.49212600,-0.00086122
-9.44571475,0.00000000,-5.53641700,0.92273620,-0.00101501
-9.36571475,0.00000000,-6.16695300,1.43024100,-0.00107653
-9.28571474,0.00000000,-6.78211100,1.98388300,-0.00107653
-9.20571474,0.00000000,-7.30499500,2.50676700,-0.00101501
-9.12571474,0.00000000,-7.72022600,3.01427100,-0.00086122
-9.04571474,0.01537894,-7.93553100,3.44488200,-0.00061516
-8.96571474,0.00000000,-7.93553100,3.78321800,-0.00024606
-8.88571474,-0.01537894,-7.68946800,4.02928100,0.00027682
-8.80571474,-0.04613681,-7.22810000,4.19845000,0.00092274
-8.72571474,-0.09227362,-6.55142700,4.27534400,0.00166093
-8.64571474,-0.16916830,-5.69020700,4.29072300,0.00255290
-8.56571474,-0.23068400,-4.73671200,4.25996500,0.00347564
-8.48571473,-0.30757870,-3.70632400,4.18307100,0.00442913
-8.40571473,-0.33833660,-2.70669300,4.10617600,0.00535187
-8.32571473,-0.33833660,-1.76857800,4.02928100,0.00621309
-8.24571473,-0.26144190,-0.93811510,3.96776600,0.00698204
-8.16571473,-0.10765260,-0.27682080,3.93700800,0.00759720
-8.08571473,0.12303150,0.23068400,3.92162900,0.00805856
-8.00571473,0.44598910,0.56902060,3.92162900,0.00836614
-7.92571473,0.83046260,0.76894680,3.93700800,0.00855069
-7.84571473,1.26107300,0.84584150,3.93700800,0.00858145
-7.76571472,1.73782000,0.84584150,3.95238700,0.00851993
-7.68571472,2.21456700,0.78432570,3.95238700,0.00836614
-7.60571472,2.67593500,0.67667320,3.93700800,0.00821235
-7.52571472,3.10654500,0.53826270,3.93700800,0.00805856
-7.44571472,3.47564000,0.35371550,3.92162900,0.00793553
-7.36571472,3.78321800,0.13841040,3.92162900,0.00784326
-7.28571472,4.04466000,-0.15378940,3.93700800,0.00784326
-7.20571472,4.22920700,-0.50750490,3.96776600,0.00793553
-7.12571472,4.36761800,-0.93811510,4.02928100,0.00805856
-7.04571472,4.44451300,-1.43024100,4.10617600,0.00821235
-6.96571471,4.49065000,-1.96850400,4.18307100,0.00836614
-6.88571471,4.49065000,-2.52214600,4.25996500,0.00851993
-6.80571471,4.44451300,-3.01427100,4.29072300,0.00858145
-6.72571471,4.36761800,-3.44488200,4.27534400,0.00855069
-6.64571471,4.22920700,-3.73708200,4.19845000,0.00839690
-6.56571471,4.04466000,-3.90625000,4.02928100,0.00805856
-6.48571471,3.78321800,-3.90625000,3.78321800,0.00756644
-6.40571471,3.47564000,-3.73708200,3.44488200,0.00688976
-6.32571471,3.10654500,-3.44488200,3.01427100,0.00602854
-6.24571470,2.67593500,-3.01427100,2.50676700,0.00501353
-6.16571470,2.21456700,-2.52214600,1.98388300,0.00396777
-6.08571470,1.73782000,-1.96850400,1.43024100,0.00286048
-6.00571470,1.26107300,-1.43024100,0.92273620,0.00184547
-5.92571470,0.83046260,-0.92273620,0.50750490,0.00098425
-5.84571470,0.43061020,-0.49212600,0.19992620,0.00033834
-5.76571470,0.12303150,-0.13841040,0.03075787,0.00003076
-5.68571470,-0.09227362,0.10765260,0.01537894,0.00006152
-5.60571470,-0.21530510,0.27682080,0.13841040,0.00046137
-5.52571469,-0.24606300,0.33833660,0.39985230,0.00116880
-5.44571469,-0.18454720,0.35371550,0.76894680,0.00218381
-5.36571469,-0.06151574,0.30757870,1.19955700,0.00335261
-5.28571469,0.06151574,0.23068400,1.67630400,0.00455217
-5.20571469,0.18454720,0.16916830,2.16843000,0.00572097
-5.12571469,0.24606300,0.09227362,2.67593500,0.00670522
-5.04571469,0.23068400,0.04613681,3.16806100,0.00741265
-4.96571469,0.10765260,0.01537894,3.67556500,0.00778174
-4.88571469,-0.13841040,0.00000000,4.16769200,0.00778174
-4.80571469,-0.47674700,-0.01537894,4.69057600,0.00741265
-4.72571468,-0.92273620,0.00000000,5.19808000,0.00670522
-4.64571468,-1.43024100,0.00000000,5.72096400,0.00572097
-4.56571468,-1.96850400,0.00000000,6.22846900,0.00455217
-4.48571468,-2.52214600,0.00000000,6.70521600,0.00335261
-4.40571468,-3.01427100,0.00000000,7.13582600,0.00218381
-4.32571468,-3.44488200,0.00000000,7.47416300,0.00116880
-4.24571468,-3.73708200,-0.01537894,7.72022600,0.00046137
-4.16571468,-3.90625000,0.00000000,7.82787800,0.00006152
-4.08571468,-3.90625000,0.01537894,7.81250000,0.00003076
-4.00571467,-3.73708200,0.04613681,7.65871000,0.00033834
-3.92571467,-3.44488200,0.09227362,7.36651000,0.00098425
-3.84571467,-3.01427100,0.16916830,6.96665800,0.00184547
-3.76571467,-2.52214600,0.23068400,6.47453200,0.00286048
-3.68571467,-1.96850400,0.30757870,5.92089000,0.00396777
-3.60571467,-1.43024100,0.33833660,5.38262700,0.00501353
-3.52571467,-0.92273620,0.33833660,4.85974400,0.00602854
-3.44571467,-0.49212600,0.26144190,4.41375400,0.00688976
-3.36571467,-0.13841040,0.10765260,4.06003900,0.00756644
-3.28571466,0.10765260,-0.12303150,3.81397600,0.00805856
-3.20571466,0.27682080,-0.44598910,3.66018700,0.00839690
-3.12571466,0.33833660,-0.83046260,3.59867100,0.00855069
-3.04571466,0.35371550,-1.26107300,3.59867100,0.00858145
-2.96571466,0.30757870,-1.73782000,3.64480800,0.00851993
-2.88571466,0.23068400,-2.21456700,3.72170300,0.00836614
-2.80571466,0.16916830,-2.67593500,3.78321800,0.00821235
-2.72571466,0.09227362,-3.10654500,3.84473400,0.00805856
-2.64571466,0.04613681,-3.49101900,3.89087100,0.00793553
-2.56571466,0.01537894,-3.79859700,3.90625000,0.00784326
-2.48571465,0.00000000,-4.02928100,3.92162900,0.00784326
-2.40571465,-0.01537894,-4.18307100,3.93700800,0.00793553
-2.32571465,0.00000000,-4.27534400,3.93700800,0.00805856
-2.24571465,0.00000000,-4.29072300,3.95238700,0.00821235
-2.16571465,0.00000000,-4.25996500,3.95238700,0.00836614
-2.08571465,0.00000000,-4.18307100,3.95238700,0.00851993
-2.00571465,0.00000000,-4.10617600,3.95238700,0.00858145
-1.92571465,0.00000000,-4.02928100,3.95238700,0.00855069
-1.84571465,0.00000000,-3.96776600,3.95238700,0.00839690
-1.76571464,0.00000000,-3.93700800,3.93700800,0.00805856
-1.68571464,0.00000000,-3.92162900,3.89087100,0.00756644
-1.60571464,0.00000000,-3.92162900,3.79859700,0.00688976
-1.52571464,0.00000000,-3.93700800,3.64480800,0.00602854
-1.44571464,0.00000000,-3.93700800,3.46026100,0.00501353
-1.36571464,0.00000000,-3.95238700,3.24495600,0.00396777
-1.28571464,0.00000000,-3.95238700,3.04502900,0.00286048
-1.20571464,0.00000000,-3.93700800,3.01427100,0.00184547
-1.12571464,0.00000000,-3.93700800,3.29109200,0.00098425
-1.04571463,0.00000000,-3.92162900,3.69094500,0.00036909
-0.96571463,0.00000000,-3.92162900,3.93700800,0.00003076
-0.88571463,0.00000000,-3.93700800,3.75246000,0.00003076
-0.80571463,0.00000000,-3.96776600,2.84510300,0.00036909
-0.72571463,0.00000000,-4.02928100,1.10728300,0.00098425
-0.64571463,0.00000000,-4.10617600,-1.33796700,0.00184547
-0.56571463,0.00000000,-4.18307100,-4.09079700,0.00286048
-0.48571463,0.00000000,-4.25996500,-6.44377400,0.00396777
-0.40571463,-0.01537894,-4.29072300,-7.35113100,0.00501353
-0.32571463,-0.04613681,-4.27534400,-5.67482800,0.00602854
-0.24571462,-0.06151574,-4.18307100,-0.41523130,0.00688976
-0.16571462,-0.03075787,-4.02928100,9.15046700,0.00756644
-0.08571462,0.06151574,-3.79859700,23.42212000,0.00805856
-0.00571462,0.26144190,-3.49101900,42.33821000,0.00839690
0.07428538,0.56902060,-3.10654500,65.34510000,0.00855069
0.15428538,0.96887300,-2.67593500,91.42777000,0.00858145
0.23428538,1.41486200,-2.21456700,119.24830000,0.00851993
0.31428538,1.83009300,-1.73782000,147.20720000,0.00836614
0.39428538,1.99926200,-1.26107300,173.67430000,0.00821235
0.47428539,1.78395700,-0.83046260,197.11180000,0.00805856
0.55428539,1.21493600,-0.44598910,216.30470000,0.00793553
0.63428539,0.43061020,-0.12303150,230.37650000,0.00784326
0.71428539,-0.41523130,0.10765260,238.92720000,0.00784326
0.79428539,-1.10728300,0.26144190,242.01830000,0.00793553
0.87428539,-1.56865100,0.33833660,240.09590000,0.00805856
0.95428539,-1.76857800,0.33833660,233.92900000,0.00821235
1.03428539,-1.90698800,0.30757870,224.45560000,0.00836614
1.11428539,-2.33759800,0.23068400,212.62920000,0.00851993
1.19428539,-3.78321800,0.15378940,199.31100000,0.00855069
1.27428540,-6.95127900,0.04613681,185.20850000,0.00845842
1.35428540,-12.10322000,-0.03075787,170.78310000,0.00827387
1.43428540,-19.26981000,-0.03075787,156.29610000,0.00799705
1.51428540,-28.20497000,0.06151574,141.80920000,0.00772023
1.59428540,-38.53961000,0.29219980,127.24530000,0.00747416
1.67428540,-49.82775000,0.66129420,112.52770000,0.00735113
1.75428540,-61.66953000,1.13804100,97.54859000,0.00728962
1.83428540,-73.89578000,1.66092500,82.33882000,0.00725886
1.91428540,-86.59879000,2.12229300,67.08292000,0.00713583
1.99428541,-100.37830000,2.32221900,52.07308000,0.00652067
2.07428541,-116.00330000,2.06077700,37.72453000,0.00519808
2.15428541,-133.78140000,1.38410400,24.51402000,0.00329109
2.23428541,-153.86630000,0.47674700,12.91831000,0.00110728
2.31428541,-176.11960000,-0.44598910,3.29109200,-0.00101501
2.39428541,-200.18760000,-1.16879900,-4.19845000,-0.00267594
2.47428541,-225.47060000,-1.53789400,-9.51956200,-0.00359867
2.55428541,-251.29180000,-1.56865100,-12.88755000,-0.00390625
2.63428541,-276.95930000,-1.50713600,-14.65613000,-0.00393701
2.71428542,-301.88850000,-1.81471400,-15.42507000,-0.00452141
2.79428542,-325.91040000,-3.35260800,-15.73265000,-0.00710507
2.87428542,-348.88650000,-7.01279500,-15.85568000,-0.01310285
2.95428542,-370.58620000,-13.21051000,-15.88644000,-0.02331447
3.03428542,-390.70190000,-22.06877000,-15.80955000,-0.03804749
3.11428542,-408.97200000,-33.41843000,-15.48659000,-0.05714813
3.19428542,-425.15070000,-46.85962000,-14.74840000,-0.08003199
3.27428542,-439.00710000,-61.85408000,-13.47195000,-0.10586860
3.35428542,-450.40290000,-77.86356000,-11.59572000,-0.13367370
3.43428542,-459.29190000,-94.50356000,-9.18122500,-0.16264760
3.51428543,-465.70500000,-111.62030000,-6.45915300,-0.19220600
3.59428543,-469.91880000,-129.58290000,-3.72170300,-0.22250250
3.67428543,-472.25640000,-148.86810000,-1.12266200,-0.25384470
3.75428543,-472.87150000,-169.70660000,1.18417800,-0.28632500
3.83428543,-471.82570000,-192.15980000,3.10654500,-0.32003570
3.91428543,-469.11910000,-216.12020000,4.62906000,-0.35488440
3.99428543,-464.65920000,-241.24940000,5.73634300,-0.39062500
4.07428543,-458.36920000,-267.07060000,6.47453200,-0.42667320
4.15428543,-450.17220000,-292.95340000,6.95127900,-0.46229090
4.23428544,-440.06820000,-318.26710000,7.21272100,-0.49652440
4.31428544,-428.08810000,-342.38130000,7.35113100,-0.52838950
4.39428544,-414.44700000,-364.95750000,7.42802600,-0.55699430
4.47428544,-399.65240000,-385.71910000,7.52030000,-0.58150830
4.55428544,-384.19660000,-404.32760000,7.62795300,-0.60107030
4.63428544,-368.58700000,-420.47550000,7.76636300,-0.61503450
4.71428544,-353.22340000,-433.91670000,7.92015200,-0.62290850
4.79428544,-338.35200000,-444.51280000,8.07394100,-0.62463090
4.87428544,-324.03420000,-452.17150000,8.18159400,-0.62032480
4.95428545,-310.13160000,-456.89280000,8.22773100,-0.61054380
5.03428545,-296.38280000,-458.78440000,8.21235200,-0.59593380
5.11428545,-282.26500000,-457.96930000,8.13545700,-0.57741760
5.19428545,-267.34740000,-454.73970000,8.05856200,-0.55601010
5.27428545,-251.72240000,-449.35710000,7.96628900,-0.53266480
5.35428545,-235.66680000,-442.00600000,7.88939400,-0.50821230
5.43428545,-219.65730000,-432.80940000,7.84325700,-0.48323700
5.51428545,-204.15540000,-421.82880000,7.84325700,-0.45810780
5.59428545,-189.60690000,-409.06430000,7.88939400,-0.43288630
5.67428545,-176.25800000,-394.56200000,7.96628900,-0.40757260
5.75428546,-164.10860000,-378.36800000,8.05856200,-0.38201280
5.83428546,-152.95890000,-360.63610000,8.13545700,-0.35605310
5.91428546,-142.16290000,-341.48930000,8.21235200,-0.32947840
5.99428546,-131.13620000,-321.28130000,8.22773100,-0.30231910
6.07428546,-119.69430000,-300.59670000,8.21235200,-0.27509840
6.15428546,-107.92940000,-280.11190000,8.12007800,-0.24855440
6.23428546,-96.07221000,-260.41150000,7.95091000,-0.22354820
6.31428546,-84.44574000,-242.01830000,7.72022600,-0.20072590
6.39428546,-73.38828000,-225.20910000,7.41264700,-0.18061020
6.47428547,-63.13053000,-210.03010000,7.04355200,-0.16338580
6.55428547,-53.82627000,-196.31210000,6.62832200,-0.14889890
6.63428547,-45.44476000,-183.71680000,6.16695300,-0.13662650
6.71428547,-37.66301000,-171.56740000,5.69020700,-0.12555360
6.79428547,-30.20423000,-159.34120000,5.21345900,-0.11475760
6.87428547,-23.06841000,-147.03800000,4.76747000,-0.10402310
6.95428547,-16.40932000,-134.85790000,4.36761800,-0.09341166
7.03428547,-10.47305000,-123.18530000,4.04466000,-0.08323081
7.11428547,-5.47490100,-112.45080000,3.81397600,-0.07394193
7.19428548,-1.63016700,-103.05430000,3.66018700,-0.06597564
7.27428548,1.01501000,-95.18024000,3.59867100,-0.05963952
7.35428548,2.46063000,-88.84412000,3.59867100,-0.05496432
7.43428548,2.90661900,-83.81520000,3.64480800,-0.05179626
7.51428548,2.70669300,-79.43221000,3.72170300,-0.04945866
7.59428548,2.24532500,-75.09534000,3.78321800,-0.04730561
7.67428548,1.66092500,-70.57394000,3.84473400,-0.04512180
7.75428548,1.04576800,-65.88336000,3.89087100,-0.04278420
7.83428548,0.36909450,-61.14665000,3.90625000,-0.04038509
7.91428548,-0.39985230,-56.59448000,3.92162900,-0.03810900
7.99428549,-1.36872500,-52.48831000,3.93700800,-0.03610975
8.07428549,-2.59904000,-48.99729000,3.93700800,-0.03457185
8.15428549,-4.10617600,-46.18295000,3.95238700,-0.03352608
8.23428549,-5.87475300,-43.96838000,3.95238700,-0.03300320
8.31428549,-7.78174200,-42.06139000,3.95238700,-0.03272638
8.39428549,-9.70410800,-40.06213000,3.95238700,-0.03248031
8.47428549,-11.58034000,-37.84756000,3.93700800,-0.03220350
8.55428549,-13.34892000,-35.38693000,3.93700800,-0.03189592
8.63428549,-14.96371000,-32.74175000,3.92162900,-0.03152682
8.71428550,-16.36319000,-30.01968000,3.90625000,-0.03121924
8.79428550,-17.53199000,-27.37451000,3.89087100,-0.03100394
8.87428550,-18.47010000,-24.92926000,3.84473400,-0.03088091
8.95428550,-19.20829000,-22.69931000,3.78321800,-0.03088091
9.03428550,-19.79269000,-20.71543000,3.72170300,-0.03100394
9.11428550,-20.26944000,-18.80844000,3.64480800,-0.03115773
9.19428550,-20.74619000,-16.77842000,3.59867100,-0.03121924
9.27428550,-21.29983000,-14.53309000,3.59867100,-0.03125000
9.35428550,-22.03802000,-12.04171000,3.66018700,-0.03128076
9.43428551,-22.97613000,-9.30425600,3.81397600,-0.03134227
9.51428551,-24.16031000,-6.35150100,4.06003900,-0.03146530
9.59428551,-25.55979000,-3.24495600,4.41375400,-0.03171137
9.67428551,-27.12844000,-0.09227362,4.85974400,-0.03208046
9.75428551,-28.80475000,3.04502900,5.38262700,-0.03254183
9.83428551,-30.48105000,6.09005900,5.92089000,-0.03303396
9.91428551,-32.04970000,9.01205700,6.47453200,-0.03343381
9.99428551,-33.38767000,11.81102000,6.96665800,-0.03361836
10.07428551,-34.41806000,14.39468000,7.38188900,-0.03346457
10.15428551,-35.07935000,16.71690000,7.67408900,-0.03294168
10.23428552,-35.32542000,18.73154000,7.82787800,-0.03201895
10.31428552,-35.17163000,20.40785000,7.82787800,-0.03066560
10.39428552,-34.63336000,21.71506000,7.67408900,-0.02894316
10.47428552,-33.75676000,22.65317000,7.38188900,-0.02688238
10.55428552,-32.60334000,23.26833000,6.96665800,-0.02460630
10.63428552,-31.18848000,23.54515000,6.47453200,-0.02214567
10.71428552,-29.55832000,23.54515000,5.92089000,-0.01956201
10.79428552,-27.69746000,23.26833000,5.38262700,-0.01688607
10.87428552,-25.62131000,22.66855000,4.85974400,-0.01417938
10.95428553,-23.34522000,21.71506000,4.41375400,-0.01153420
11.03428553,-20.89997000,20.40785000,4.06003900,-0.00904282
11.11428553,-18.30093000,18.71617000,3.81397600,-0.00670522
11.19428553,-15.59424000,16.67077000,3.66018700,-0.00461368
11.27428553,-12.79527000,14.30241000,3.59867100,-0.00273745
11.35428553,-9.95017100,11.64185000,3.59867100,-0.00107653
11.43428553,-7.08968900,8.78137200,3.64480800,0.00039985
11.51428553,-4.22920700,5.78248000,3.72170300,0.00175320
11.59428553,-1.36872500,2.70669300,3.78321800,0.00310655
11.67428553,1.44562000,-0.38447340,3.82935500,0.00445989
11.75428554,4.15231300,-3.44488200,3.87549200,0.00581324
