Time,Channel A,Channel B,Channel C,Channel D
(ns),(mV),(mV),(mV),(V)

-15.24776183,3.90625000,-7.81250000,3.81397600,0.00784326
-15.16776182,3.78321800,-7.65871000,3.66018700,0.00784326
-15.08776182,3.53715500,-7.36651000,3.59867100,0.00787402
-15.00776182,3.18344000,-6.96665800,3.59867100,0.00787402
-14.92776182,2.75283000,-6.47453200,3.64480800,0.00790477
-14.84776182,2.27608300,-5.92089000,3.72170300,0.00790477
-14.76776182,1.76857800,-5.38262700,3.78321800,0.00790477
-14.68776182,1.26107300,-4.85974400,3.84473400,0.00787402
-14.60776182,0.75356790,-4.41375400,3.89087100,0.00784326
-14.52776182,0.24606300,-4.06003900,3.90625000,0.00784326
-14.44776181,-0.24606300,-3.81397600,3.92162900,0.00784326
-14.36776181,-0.70743110,-3.66018700,3.93700800,0.00784326
-14.28776181,-1.16879900,-3.59867100,3.93700800,0.00787402
-14.20776181,-1.61478800,-3.59867100,3.95238700,0.00790477
-14.12776181,-2.04539800,-3.64480800,3.95238700,0.00790477
-14.04776181,-2.44525100,-3.72170300,3.95238700,0.00790477
-13.96776181,-2.82972400,-3.78321800,3.95238700,0.00790477
-13.88776181,-3.19881900,-3.84473400,3.93700800,0.00787402
-13.80776181,-3.52177600,-3.89087100,3.92162900,0.00784326
-13.72776180,-3.79859700,-3.90625000,3.92162900,0.00784326
-13.64776180,-4.02928100,-3.92162900,3.92162900,0.00784326
-13.56776180,-4.22920700,-3.93700800,3.92162900,0.00784326
-13.48776180,-4.36761800,-3.93700800,3.93700800,0.00787402
-13.40776180,-4.44451300,-3.95238700,3.95238700,0.00790477
-13.32776180,-4.49065000,-3.95238700,3.95238700,0.00790477
-13.24776180,-4.49065000,-3.95238700,3.95238700,0.00790477
-13.16776180,-4.44451300,-3.95238700,3.95238700,0.00790477
-13.08776180,-4.36761800,-3.93700800,3.93700800,0.00787402
-13.00776180,-4.22920700,-3.92162900,3.92162900,0.00784326
-12.92776179,-4.04466000,-3.92162900,3.92162900,0.00784326
-12.84776179,-3.78321800,-3.92162900,3.92162900,0.00784326
-12.76776179,-3.47564000,-3.92162900,3.92162900,0.00784326
-12.68776179,-3.10654500,-3.93700800,3.93700800,0.00787402
-12.60776179,-2.67593500,-3.95238700,3.95238700,0.00790477
-12.52776179,-2.21456700,-3.95238700,3.95238700,0.00790477
-12.44776179,-1.73782000,-3.95238700,3.95238700,0.00790477
-12.36776179,-1.27645200,-3.95238700,3.95238700,0.00790477
-12.28776179,-0.83046260,-3.93700800,3.93700800,0.00787402
-12.20776178,-0.46136810,-3.92162900,3.92162900,0.00784326
-12.12776178,-0.13841040,-3.92162900,3.92162900,0.00784326
-12.04776178,0.12303150,-3.92162900,3.92162900,0.00784326
-11.96776178,0.30757870,-3.92162900,3.92162900,0.00784326
-11.88776178,0.43061020,-3.93700800,3.93700800,0.00787402
-11.80776178,0.50750490,-3.95238700,3.95238700,0.00790477
-11.72776178,0.53826270,-3.95238700,3.95238700,0.00790477
-11.64776178,0.53826270,-3.95238700,3.95238700,0.00790477
-11.56776178,0.50750490,-3.93700800,3.93700800,0.00790477
-11.48776177,0.43061020,-3.93700800,3.93700800,0.00787402
-11.40776177,0.30757870,-3.92162900,3.92162900,0.00784326
-11.32776177,0.12303150,-3.92162900,3.92162900,0.00784326
-11.24776177,-0.13841040,-3.93700800,3.93700800,0.00784326
-11.16776177,-0.49212600,-3.96776600,3.96776600,0.00784326
-11.08776177,-0.93811510,-4.02928100,4.02928100,0.00787402
-11.00776177,-1.43024100,-4.10617600,4.10617600,0.00790477
-10.92776177,-1.96850400,-4.18307100,4.18307100,0.00790477
-10.84776177,-2.52214600,-4.25996500,4.25996500,0.00790477
-10.76776177,-3.01427100,-4.29072300,4.29072300,0.00790477
-10.68776176,-3.44488200,-4.27534400,4.27534400,0.00787402
-10.60776176,-3.73708200,-4.18307100,4.19845000,0.00784326
-10.52776176,-3.90625000,-4.02928100,4.02928100,0.00784326
-10.44776176,-3.90625000,-3.79859700,3.78321800,0.00784326
-10.36776176,-3.73708200,-3.49101900,3.44488200,0.00784326
-10.28776176,-3.44488200,-3.10654500,3.01427100,0.00787402
-10.20776176,-3.01427100,-2.67593500,2.50676700,0.00790477
-10.12776176,-2.52214600,-2.21456700,1.98388300,0.00790477
-10.04776176,-1.96850400,-1.73782000,1.43024100,0.00790477
-9.96776175,-1.43024100,-1.26107300,0.92273620,0.00790477
-9.88776175,-0.93811510,-0.83046260,0.49212600,0.00787402
-9.80776175,-0.49212600,-0.44598910,0.16916830,0.00784326
-9.72776175,-0.13841040,-0.12303150,0.01537894,0.00784326
-9.64776175,0.12303150,0.10765260,0.03075787,0.00784326
-9.56776175,0.30757870,0.26144190,0.23068400,0.00784326
-9.48776175,0.43061020,0.33833660,0.58439960,0.00787402
-9.40776175,0.50750490,0.33833660,1.09190400,0.00790477
-9.32776175,0.53826270,0.30757870,1.67630400,0.00790477
-9.24776174,0.53826270,0.23068400,2.27608300,0.00790477
-9.16776174,0.50750490,0.15378940,2.86048200,0.00787402
-9.08776174,0.43061020,0.09227362,3.35260800,0.00787402
-9.00776174,0.30757870,0.03075787,3.70632400,0.00784326
-8.92776174,0.12303150,0.00000000,3.89087100,0.00784326
-8.84776174,-0.13841040,0.00000000,3.89087100,0.00787402
-8.76776174,-0.49212600,0.03075787,3.70632400,0.00793553
-8.68776174,-0.93811510,0.09227362,3.35260800,0.00805856
-8.60776174,-1.43024100,0.15378940,2.86048200,0.00821235
-8.52776174,-1.96850400,0.23068400,2.27608300,0.00836614
-8.44776173,-2.52214600,0.30757870,1.67630400,0.00851993
-8.36776173,-3.01427100,0.33833660,1.09190400,0.00858145
-8.28776173,-3.44488200,0.33833660,0.58439960,0.00855069
-8.20776173,-3.73708200,0.26144190,0.23068400,0.00839690
-8.12776173,-3.90625000,0.10765260,0.03075787,0.00805856
-8.04776173,-3.90625000,-0.12303150,0.01537894,0.00756644
-7.96776173,-3.73708200,-0.44598910,0.16916830,0.00688976
-7.88776173,-3.44488200,-0.83046260,0.49212600,0.00602854
-7.80776173,-3.01427100,-1.26107300,0.92273620,0.00501353
-7.72776172,-2.52214600,-1.73782000,1.43024100,0.00396777
-7.64776172,-1.96850400,-2.21456700,1.98388300,0.00286048
-7.56776172,-1.43024100,-2.67593500,2.50676700,0.00184547
-7.48776172,-0.92273620,-3.10654500,2.99889300,0.00098425
-7.40776172,-0.49212600,-3.47564000,3.42950300,0.00033834
-7.32776172,-0.13841040,-3.78321800,3.78321800,0.00003076
-7.24776172,0.10765260,-4.04466000,4.04466000,0.00006152
-7.16776172,0.27682080,-4.22920700,4.24458600,0.00046137
-7.08776172,0.33833660,-4.36761800,4.36761800,0.00116880
-7.00776172,0.35371550,-4.44451300,4.45989200,0.00218381
-6.92776171,0.30757870,-4.49065000,4.49065000,0.00335261
-6.84776171,0.23068400,-4.49065000,4.49065000,0.00455217
-6.76776171,0.15378940,-4.45989200,4.45989200,0.00572097
-6.68776171,0.09227362,-4.36761800,4.36761800,0.00670522
-6.60776171,0.03075787,-4.24458600,4.24458600,0.00741265
-6.52776171,0.00000000,-4.04466000,4.04466000,0.00778174
-6.44776171,0.00000000,-3.78321800,3.78321800,0.00781250
-6.36776171,0.03075787,-3.42950300,3.42950300,0.00750492
-6.28776171,0.09227362,-2.99889300,2.99889300,0.00688976
-6.20776170,0.15378940,-2.50676700,2.50676700,0.00605930
-6.12776170,0.23068400,-1.98388300,1.98388300,0.00504429
-6.04776170,0.30757870,-1.43024100,1.43024100,0.00393701
-5.96776170,0.33833660,-0.92273620,0.92273620,0.00286048
-5.88776170,0.33833660,-0.49212600,0.49212600,0.00187623
-5.80776170,0.26144190,-0.18454720,0.18454720,0.00098425
-5.72776170,0.10765260,-0.01537894,0.01537894,0.00027682
-5.64776170,-0.12303150,-0.01537894,0.01537894,-0.00024606
-5.56776170,-0.44598910,-0.18454720,0.18454720,-0.00061516
-5.48776169,-0.83046260,-0.49212600,0.49212600,-0.00086122
-5.40776169,-1.26107300,-0.92273620,0.92273620,-0.00101501
-5.32776169,-1.73782000,-1.43024100,1.43024100,-0.00107653
-5.24776169,-2.21456700,-1.98388300,1.98388300,-0.00107653
-5.16776169,-2.67593500,-2.50676700,2.50676700,-0.00101501
-5.08776169,-3.10654500,-3.01427100,3.01427100,-0.00086122
-5.00776169,-3.47564000,-3.44488200,3.44488200,-0.00061516
-4.92776169,-3.78321800,-3.78321800,3.78321800,-0.00024606
-4.84776169,-4.04466000,-4.02928100,4.02928100,0.00027682
-4.76776169,-4.22920700,-4.19845000,4.19845000,0.00092274
-4.68776168,-4.36761800,-4.27534400,4.27534400,0.00166093
-4.60776168,-4.44451300,-4.29072300,4.29072300,0.00255290
-4.52776168,-4.49065000,-4.25996500,4.25996500,0.00347564
-4.44776168,-4.49065000,-4.18307100,4.18307100,0.00442913
-4.36776168,-4.44451300,-4.10617600,4.10617600,0.00535187
-4.28776168,-4.36761800,-4.02928100,4.02928100,0.00621309
-4.20776168,-4.22920700,-3.96776600,3.96776600,0.00695128
-4.12776168,-4.04466000,-3.92162900,3.92162900,0.00756644
-4.04776168,-3.78321800,-3.92162900,3.92162900,0.00808932
-3.96776167,-3.47564000,-3.96776600,3.96776600,0.00845842
-3.88776167,-3.10654500,-4.02928100,4.02928100,0.00873524
-3.80776167,-2.67593500,-4.10617600,4.10617600,0.00888903
-3.72776167,-2.21456700,-4.18307100,4.18307100,0.00898130
-3.64776167,-1.73782000,-4.25996500,4.25996500,0.00898130
-3.56776167,-1.26107300,-4.29072300,4.29072300,0.00888903
-3.48776167,-0.83046260,-4.27534400,4.27534400,0.00873524
-3.40776167,-0.44598910,-4.19845000,4.19845000,0.00845842
-3.32776167,-0.12303150,-4.02928100,4.02928100,0.00808932
-3.24776166,0.10765260,-3.78321800,3.78321800,0.00756644
-3.16776166,0.26144190,-3.44488200,3.44488200,0.00695128
-3.08776166,0.33833660,-3.01427100,3.01427100,0.00621309
-3.00776166,0.33833660,-2.50676700,2.50676700,0.00535187
-2.92776166,0.30757870,-1.98388300,1.98388300,0.00442913
-2.84776166,0.23068400,-1.43024100,1.43024100,0.00347564
-2.76776166,0.16916830,-0.92273620,0.92273620,0.00255290
-2.68776166,0.09227362,-0.49212600,0.49212600,0.00166093
-2.60776166,0.04613681,-0.18454720,0.16916830,0.00092274
-2.52776166,0.01537894,-0.01537894,0.01537894,0.00027682
-2.44776165,0.00000000,-0.01537894,0.03075787,-0.00024606
-2.36776165,-0.01537894,-0.18454720,0.23068400,-0.00061516
-2.28776165,0.00000000,-0.49212600,0.58439960,-0.00086122
-2.20776165,0.00000000,-0.92273620,1.09190400,-0.00101501
-2.12776165,0.00000000,-1.43024100,1.67630400,-0.00107653
-2.04776165,0.00000000,-1.98388300,2.27608300,-0.00107653
-1.96776165,0.00000000,-2.50676700,2.87586100,-0.00101501
-1.88776165,0.00000000,-3.01427100,3.38336600,-0.00086122
-1.80776165,0.00000000,-3.44488200,3.75246000,-0.00061516
-1.72776164,0.00000000,-3.78321800,3.92162900,-0.00024606
-1.64776164,0.00000000,-4.02928100,3.84473400,0.00027682
-1.56776164,0.00000000,-4.19845000,3.49101900,0.00092274
-1.48776164,0.00000000,-4.27534400,2.87586100,0.00166093
-1.40776164,0.00000000,-4.29072300,2.04539800,0.00255290
-1.32776164,0.00000000,-4.25996500,1.09190400,0.00347564
-1.24776164,0.00000000,-4.18307100,0.15378940,0.00442913
-1.16776164,0.00000000,-4.10617600,-0.50750490,0.00535187
-1.08776164,0.00000000,-4.02928100,-0.66129420,0.00621309
-1.00776163,-0.01537894,-3.96776600,-0.43061020,0.00698204
-0.92776163,0.00000000,-3.93700800,-0.09227362,0.00759720
-0.84776163,0.01537894,-3.92162900,-0.01537894,0.00805856
-0.76776163,0.04613681,-3.92162900,-0.49212600,0.00836614
-0.68776163,0.09227362,-3.93700800,-1.72244100,0.00855069
-0.60776163,0.16916830,-3.93700800,-3.61405000,0.00858145
-0.52776163,0.23068400,-3.95238700,-5.73634300,0.00851993
-0.44776163,0.30757870,-3.95238700,-7.33575200,0.00836614
-0.36776163,0.33833660,-3.95238700,-7.25885800,0.00821235
-0.28776163,0.29219980,-3.93700800,-4.21382900,0.00805856
-0.20776162,0.19992620,-3.92162900,2.99889300,0.00793553
-0.12776162,0.07689468,-3.92162900,15.28666000,0.00787402
-0.04776162,-0.06151574,-3.92162900,33.21850000,0.00784326
0.03223838,-0.18454720,-3.92162900,56.77903000,0.00784326
0.11223838,-0.26144190,-3.93700800,85.35310000,0.00787402
0.19223838,-0.29219980,-3.95238700,117.72580000,0.00787402
0.27223838,-0.32295760,-3.95238700,152.15920000,0.00790477
0.35223838,-0.38447340,-3.95238700,186.57730000,0.00790477
0.43223838,-0.69205210,-3.95238700,218.73460000,0.00787402
0.51223839,-1.36872500,-3.93700800,246.52440000,0.00787402
0.59223839,-2.33759800,-3.93700800,268.14710000,0.00784326
0.67223839,-3.41412400,-3.92162900,282.29570000,0.00784326
0.75223839,-4.36761800,-3.90625000,288.32430000,0.00787402
0.83223839,-4.99815400,-3.89087100,286.27890000,0.00793553
0.91223839,-5.16732200,-3.84473400,276.83620000,0.00805856
0.99223839,-4.92125900,-3.78321800,261.22660000,0.00821235
1.07223839,-4.50602900,-3.72170300,241.03410000,0.00836614
1.15223839,-4.39837600,-3.64480800,217.98100000,0.00851993
1.23223839,-5.47490100,-3.61405000,193.77460000,0.00855069
1.31223840,-8.61220400,-3.66018700,169.84500000,0.00845842
1.39223840,-14.22552000,-3.75246000,147.34560000,0.00824311
1.47223840,-22.43787000,-3.87549200,126.96850000,0.00796629
1.55223840,-33.04933000,-3.96776600,108.97510000,0.00772023
1.63223840,-45.66006000,-3.98314500,93.31938000,0.00756644
1.71223840,-59.76255000,-3.90625000,79.63213000,0.00753568
1.79223840,-74.81853000,-3.75246000,67.45202000,0.00762795
1.87223840,-90.48965000,-3.55253400,56.27153000,0.00775098
1.95223840,-106.65290000,-3.42950300,45.69082000,0.00772023
2.03223841,-123.73890000,-3.62942900,35.49459000,0.00719734
2.11223841,-142.30130000,-4.35223900,25.63669000,0.00578248
2.19223841,-162.54000000,-5.56717500,16.31705000,0.00366019
2.27223841,-184.51650000,-7.07431000,7.78174200,0.00119956
2.35223841,-208.07700000,-8.59682500,0.36909450,-0.00110728
2.43223841,-232.85250000,-9.87327700,-5.64407000,-0.00286048
2.51223841,-258.32000000,-10.74988000,-10.13472000,-0.00375246
2.59223841,-283.86440000,-11.21124000,-13.11823000,-0.00384473
2.67223841,-308.88600000,-11.53420000,-14.74840000,-0.00362943
2.75223842,-332.87710000,-12.24163000,-15.50197000,-0.00409080
2.83223842,-355.65330000,-14.33317000,-15.87106000,-0.00692052
2.91223842,-377.15300000,-18.77768000,-16.00947000,-0.01387180
2.99223842,-397.13020000,-26.15957000,-16.02485000,-0.02602116
3.07223842,-415.29280000,-36.70952000,-15.87106000,-0.04382997
3.15223842,-431.39450000,-50.31988000,-15.42507000,-0.06735975
3.23223842,-445.18950000,-66.62155000,-14.59461000,-0.09596457
3.31223842,-456.47760000,-85.03014000,-13.27202000,-0.12862940
3.39223842,-465.15130000,-104.83820000,-11.42655000,-0.16415480
3.47223842,-471.17980000,-125.46140000,-9.11970900,-0.20131030
3.55223843,-474.65550000,-146.45360000,-6.53604800,-0.23908100
3.63223843,-475.91660000,-167.84570000,-3.90625000,-0.27697460
3.71223843,-475.28600000,-189.82220000,-1.36872500,-0.31486840
3.79223843,-473.00990000,-212.38310000,0.95349410,-0.35245450
3.87223843,-469.21130000,-235.43610000,3.01427100,-0.38961000
3.95223843,-463.95180000,-258.84290000,4.75209100,-0.42605810
4.03223843,-457.20040000,-282.32650000,6.21309000,-0.46161420
4.11223843,-448.88040000,-305.53330000,7.39726800,-0.49590920
4.19223843,-438.91480000,-328.03270000,8.38152000,-0.52838950
4.27223844,-427.27300000,-349.33250000,9.18122500,-0.55847070
4.35223844,-413.92410000,-369.01760000,9.87327700,-0.58544530
4.43223844,-399.00650000,-386.85710000,10.45768000,-0.60866760
4.51223844,-382.96620000,-402.66670000,10.94980000,-0.62752220
4.59223844,-366.31090000,-416.15400000,11.36503000,-0.64127090
4.67223844,-349.53250000,-427.05770000,11.65723000,-0.64936020
4.75223844,-333.07700000,-435.14700000,11.84178000,-0.65132870
4.83223844,-317.20590000,-440.29900000,11.85716000,-0.64705340
4.91223844,-302.02690000,-442.45200000,11.71875000,-0.63674950
4.99223845,-287.44770000,-441.66770000,11.41117000,-0.62084770
5.07223845,-273.19140000,-438.13050000,10.96518000,-0.60017840
5.15223845,-258.73520000,-432.07120000,10.42692000,-0.57569510
5.23223845,-243.61770000,-423.90500000,9.82714000,-0.54847440
5.31223845,-227.90050000,-414.07790000,9.22736200,-0.51974650
5.39223845,-211.87560000,-402.95890000,8.64296200,-0.49049580
5.47223845,-196.00450000,-390.79410000,8.10469900,-0.46142960
5.55223845,-180.76400000,-377.78360000,7.59719500,-0.43307090
5.63223845,-166.58460000,-363.98860000,7.13582600,-0.40560410
5.71223845,-153.69710000,-349.40950000,6.68983700,-0.37896780
5.79223846,-142.14750000,-334.01510000,6.27460600,-0.35288510
5.87223846,-131.70520000,-317.77500000,5.85937500,-0.32714070
5.95223846,-121.73970000,-300.59670000,5.45952300,-0.30121190
6.03223846,-111.62030000,-282.58800000,5.04429100,-0.27497540
6.11223846,-101.20880000,-264.13320000,4.67519700,-0.24883120
6.19223846,-90.53580000,-245.78620000,4.33686000,-0.22336370
6.27223846,-79.80130000,-228.10040000,4.04466000,-0.19943410
6.35223846,-69.34362000,-211.53730000,3.81397600,-0.17774980
6.43223846,-59.45497000,-196.45050000,3.67556500,-0.15886440
6.51223847,-50.36602000,-182.94780000,3.61405000,-0.14299340
6.59223847,-42.21518000,-170.87540000,3.59867100,-0.12998280
6.67223847,-34.98708000,-159.95630000,3.64480800,-0.11937130
6.75223847,-28.37414000,-149.51400000,3.72170300,-0.11008240
6.83223847,-22.08415000,-138.97940000,3.78321800,-0.10110110
6.91223847,-16.14788000,-128.26030000,3.82935500,-0.09218135
6.99223847,-10.70374000,-117.51050000,3.87549200,-0.08326156
7.07223847,-5.96702700,-107.02200000,3.90625000,-0.07464936
7.15223847,-2.13767200,-97.14874000,3.93700800,-0.06677534
7.23223848,0.61515740,-88.25971000,3.98314500,-0.06007013
7.31223848,2.19918800,-80.57024000,4.04466000,-0.05474902
7.39223848,2.67593500,-74.11109000,4.10617600,-0.05099655
7.47223848,2.22994600,-68.74384000,4.18307100,-0.04859744
7.55223848,1.21493600,-63.96099000,4.25996500,-0.04693652
7.63223848,0.00000000,-59.27042000,4.29072300,-0.04542938
7.71223848,-1.24569400,-54.53371000,4.27534400,-0.04382997
7.79223848,-2.39911400,-49.81237000,4.19845000,-0.04207677
7.87223848,-3.44488200,-45.27559000,4.02928100,-0.04016978
7.95223848,-4.38299700,-41.15403000,3.78321800,-0.03829355
8.03223849,-5.30573300,-37.66301000,3.44488200,-0.03660187
8.11223849,-6.25922700,-34.97170000,3.01427100,-0.03521777
8.19223849,-7.30499500,-33.08009000,2.50676700,-0.03423351
8.27223849,-8.45841400,-31.88053000,1.98388300,-0.03361836
8.35223849,-9.68872900,-30.97318000,1.43024100,-0.03318775
8.43223849,-10.94980000,-29.97355000,0.92273620,-0.03278789
8.51223849,-12.25701000,-28.65096000,0.49212600,-0.03238804
8.59223849,-13.61036000,-26.91314000,0.18454720,-0.03195743
8.67223849,-14.99446000,-24.74471000,0.01537894,-0.03155758
8.75223850,-16.39395000,-22.25332000,0.01537894,-0.03125000
8.83223850,-17.77805000,-19.56201000,0.18454720,-0.03106545
8.91223850,-19.14677000,-16.79380000,0.49212600,-0.03106545
8.99223850,-20.45399000,-14.07173000,0.92273620,-0.03121924
9.07223850,-21.69968000,-11.44193000,1.43024100,-0.03149606
9.15223850,-22.85310000,-8.85826700,1.98388300,-0.03174213
9.23223850,-23.94500000,-6.19771100,2.52214600,-0.03192667
9.31223850,-24.97539000,-3.42950300,3.01427100,-0.03192667
9.39223850,-25.99040000,-0.55364170,3.44488200,-0.03180364
9.47223851,-26.97465000,2.41449300,3.78321800,-0.03155758
9.55223851,-27.94353000,5.44414400,4.02928100,-0.03118848
9.63223851,-28.91240000,8.50455100,4.15231300,-0.03081939
9.71223851,-29.85052000,11.51882000,4.18307100,-0.03041954
9.79223851,-30.72711000,14.44082000,4.13693400,-0.02998893
9.87223851,-31.49606000,17.22441000,4.01390200,-0.02955832
9.95223851,-32.11122000,19.80807000,3.89087100,-0.02900467
10.03223851,-32.49569000,22.16105000,3.76783900,-0.02826649
10.11223851,-32.58797000,24.19107000,3.69094500,-0.02728223
10.19223851,-32.35728000,25.83661000,3.70632400,-0.02599040
10.27223852,-31.78826000,27.03617000,3.82935500,-0.02442175
10.35223852,-30.88090000,27.75898000,4.04466000,-0.02257628
10.43223852,-29.65059000,28.00504000,4.36761800,-0.02045399
10.51223852,-28.12807000,27.78974000,4.76747000,-0.01814715
10.59223852,-26.37487000,27.15920000,5.21345900,-0.01568652
10.67223852,-24.42175000,26.17495000,5.69020700,-0.01316437
10.75223852,-22.29946000,24.88312000,6.16695300,-0.01054995
10.83223852,-20.05413000,23.31447000,6.61294300,-0.00796629
10.91223852,-17.70115000,21.46899000,7.02817400,-0.00544414
10.99223853,-15.31742000,19.36208000,7.39726800,-0.00307579
11.07223853,-12.93369000,16.97834000,7.70484700,-0.00095349
11.15223853,-10.62684000,14.33317000,7.96628900,0.00086122
11.23223853,-8.42765700,11.44193000,8.19697300,0.00233760
11.31223853,-6.35150100,8.33538300,8.39689900,0.00347564
11.39223853,-4.41375400,5.07504900,8.56606700,0.00427534
11.47223853,-2.59904000,1.70706200,8.68909800,0.00482899
11.55223853,-0.81508360,-1.70706200,8.75061400,0.00522884
11.63223853,0.98425190,-5.09042800,8.75061400,0.00562869
