Time,Channel A,Channel B,Channel C,Channel D
(ns),(mV),(mV),(mV),(V)

-15.79999983,0.09227362,0.01537894,3.78321800,0.00784326
-15.71999982,0.04613681,0.04613681,3.44488200,0.00784326
-15.63999982,-0.24606300,0.09227362,3.01427100,0.00787402
-15.55999982,-0.73818890,0.16916830,2.50676700,0.00787402
-15.47999982,-1.36872500,0.23068400,1.98388300,0.00790477
-15.39999982,-2.04539800,0.30757870,1.43024100,0.00790477
-15.31999982,-2.69131400,0.33833660,0.92273620,0.00790477
-15.23999982,-3.24495600,0.33833660,0.49212600,0.00787402
-15.15999982,-3.66018700,0.26144190,0.18454720,0.00784326
-15.07999982,-3.87549200,0.10765260,0.01537894,0.00784326
-14.99999981,-3.92162900,-0.12303150,0.01537894,0.00784326
-14.91999981,-3.76783900,-0.44598910,0.18454720,0.00784326
-14.83999981,-3.46026100,-0.83046260,0.49212600,0.00787402
-14.75999981,-3.02965000,-1.26107300,0.92273620,0.00790477
-14.67999981,-2.52214600,-1.73782000,1.43024100,0.00790477
-14.59999981,-1.96850400,-2.21456700,1.98388300,0.00790477
-14.51999981,-1.43024100,-2.67593500,2.50676700,0.00790477
-14.43999981,-0.92273620,-3.10654500,3.01427100,0.00787402
-14.35999981,-0.49212600,-3.47564000,3.44488200,0.00784326
-14.27999980,-0.13841040,-3.78321800,3.78321800,0.00784326
-14.19999980,0.10765260,-4.04466000,4.02928100,0.00784326
-14.11999980,0.27682080,-4.22920700,4.19845000,0.00784326
-14.03999980,0.33833660,-4.36761800,4.27534400,0.00787402
-13.95999980,0.35371550,-4.44451300,4.29072300,0.00790477
-13.87999980,0.30757870,-4.49065000,4.25996500,0.00790477
-13.79999980,0.23068400,-4.49065000,4.18307100,0.00790477
-13.71999980,0.16916830,-4.45989200,4.10617600,0.00790477
-13.63999980,0.09227362,-4.36761800,4.02928100,0.00787402
-13.55999980,0.04613681,-4.24458600,3.96776600,0.00784326
-13.47999979,0.01537894,-4.04466000,3.92162900,0.00784326
-13.39999979,0.00000000,-3.78321800,3.92162900,0.00784326
-13.31999979,-0.01537894,-3.42950300,3.96776600,0.00784326
-13.23999979,0.00000000,-2.99889300,4.02928100,0.00787402
-13.15999979,0.00000000,-2.50676700,4.10617600,0.00790477
-13.07999979,0.00000000,-1.98388300,4.18307100,0.00790477
-12.99999979,0.00000000,-1.43024100,4.25996500,0.00790477
-12.91999979,0.00000000,-0.92273620,4.29072300,0.00790477
-12.83999979,0.00000000,-0.49212600,4.27534400,0.00787402
-12.75999978,0.00000000,-0.18454720,4.19845000,0.00784326
-12.67999978,0.00000000,-0.01537894,4.02928100,0.00784326
-12.59999978,0.00000000,-0.01537894,3.78321800,0.00784326
-12.51999978,0.00000000,-0.18454720,3.44488200,0.00784326
-12.43999978,0.00000000,-0.49212600,3.01427100,0.00787402
-12.35999978,0.00000000,-0.92273620,2.50676700,0.00790477
-12.27999978,0.00000000,-1.43024100,1.98388300,0.00790477
-12.19999978,0.00000000,-1.98388300,1.43024100,0.00790477
-12.11999978,0.00000000,-2.50676700,0.92273620,0.00790477
-12.03999977,0.00000000,-2.99889300,0.50750490,0.00787402
-11.95999977,0.00000000,-3.41412400,0.19992620,0.00784326
-11.87999977,0.00000000,-3.76783900,0.03075787,0.00784326
-11.79999977,0.00000000,-4.06003900,0.01537894,0.00784326
-11.71999977,0.00000000,-4.29072300,0.13841040,0.00784326
-11.63999977,0.00000000,-4.47527100,0.39985230,0.00787402
-11.55999977,0.00000000,-4.61368100,0.76894680,0.00790477
-11.47999977,0.00000000,-4.73671200,1.19955700,0.00790477
-11.39999977,0.00000000,-4.79822800,1.67630400,0.00790477
-11.31999977,0.00000000,-4.79822800,2.16843000,0.00787402
-11.23999976,0.00000000,-4.72133400,2.67593500,0.00787402
-11.15999976,0.00000000,-4.50602900,3.18344000,0.00784326
-11.07999976,0.00000000,-4.16769200,3.67556500,0.00784326
-10.99999976,0.00000000,-3.64480800,4.16769200,0.00787402
-10.91999976,0.00000000,-2.93737700,4.64443900,0.00793553
-10.83999976,0.00000000,-2.07615600,5.10580700,0.00805856
-10.75999976,0.00000000,-1.07652500,5.56717500,0.00821235
-10.67999976,0.00000000,0.00000000,5.99778500,0.00836614
-10.59999976,0.00000000,1.09190400,6.39763700,0.00851993
-10.51999975,0.00000000,2.09153500,6.78211100,0.00858145
-10.43999975,0.00000000,2.95275600,7.13582600,0.00855069
-10.35999975,-0.01537894,3.55253400,7.44340500,0.00836614
-10.27999975,0.00000000,3.87549200,7.72022600,0.00805856
-10.19999975,0.01537894,3.87549200,7.95091000,0.00759720
-10.11999975,0.04613681,3.55253400,8.15083600,0.00698204
-10.03999975,0.09227362,2.95275600,8.28924700,0.00621309
-9.95999975,0.16916830,2.09153500,8.39689900,0.00535187
-9.87999975,0.23068400,1.09190400,8.44303500,0.00442913
-9.79999974,0.30757870,0.00000000,8.44303500,0.00347564
-9.71999974,0.35371550,-1.07652500,8.39689900,0.00252215
-9.63999974,0.33833660,-2.09153500,8.30462600,0.00166093
-9.55999974,0.27682080,-2.95275600,8.16621500,0.00089198
-9.47999974,0.10765260,-3.64480800,7.96628900,0.00024606
-9.39999974,-0.13841040,-4.15231300,7.70484700,-0.00021531
-9.31999974,-0.49212600,-4.47527100,7.39726800,-0.00052288
-9.23999974,-0.92273620,-4.61368100,7.04355200,-0.00067667
-9.15999974,-1.43024100,-4.64443900,6.61294300,-0.00067667
-9.07999974,-1.96850400,-4.56754400,6.16695300,-0.00061516
-8.99999973,-2.52214600,-4.42913300,5.69020700,-0.00046137
-8.91999973,-3.01427100,-4.27534400,5.21345900,-0.00030758
-8.83999973,-3.44488200,-4.12155500,4.76747000,-0.00018455
-8.75999973,-3.73708200,-4.01390200,4.36761800,-0.00006152
-8.67999973,-3.90625000,-3.93700800,4.04466000,0.00000000
-8.59999973,-3.90625000,-3.90625000,3.82935500,0.00000000
-8.51999973,-3.73708200,-3.90625000,3.70632400,-0.00006152
-8.43999973,-3.44488200,-3.92162900,3.69094500,-0.00018455
-8.35999973,-3.01427100,-3.93700800,3.76783900,-0.00030758
-8.27999972,-2.52214600,-3.95238700,3.89087100,-0.00046137
-8.19999972,-1.96850400,-3.95238700,4.01390200,-0.00061516
-8.11999972,-1.43024100,-3.93700800,4.13693400,-0.00067667
-8.03999972,-0.93811510,-3.93700800,4.18307100,-0.00064592
-7.95999972,-0.49212600,-3.92162900,4.15231300,-0.00049213
-7.87999972,-0.13841040,-3.92162900,4.02928100,-0.00021531
-7.79999972,0.12303150,-3.93700800,3.78321800,0.00024606
-7.71999972,0.30757870,-3.96776600,3.44488200,0.00079970
-7.63999972,0.43061020,-4.02928100,3.01427100,0.00147638
-7.55999972,0.50750490,-4.10617600,2.52214600,0.00221457
-7.47999971,0.53826270,-4.18307100,1.98388300,0.00301427
-7.39999971,0.53826270,-4.25996500,1.43024100,0.00381398
-7.31999971,0.50750490,-4.29072300,0.92273620,0.00464444
-7.23999971,0.43061020,-4.27534400,0.49212600,0.00550566
-7.15999971,0.30757870,-4.19845000,0.18454720,0.00639764
-7.07999971,0.12303150,-4.02928100,0.01537894,0.00735113
-6.99999971,-0.13841040,-3.78321800,0.01537894,0.00836614
-6.91999971,-0.49212600,-3.44488200,0.18454720,0.00944267
-6.83999971,-0.93811510,-3.01427100,0.49212600,0.01058071
-6.75999970,-1.43024100,-2.50676700,0.92273620,0.01178027
-6.67999970,-1.96850400,-1.98388300,1.43024100,0.01294907
-6.59999970,-2.52214600,-1.43024100,1.98388300,0.01402559
-6.51999970,-3.01427100,-0.92273620,2.52214600,0.01494833
-6.43999970,-3.44488200,-0.49212600,3.01427100,0.01562500
-6.35999970,-3.73708200,-0.18454720,3.44488200,0.01596334
-6.27999970,-3.90625000,-0.01537894,3.78321800,0.01590182
-6.19999970,-3.90625000,-0.01537894,4.02928100,0.01534818
-6.11999970,-3.73708200,-0.18454720,4.15231300,0.01436393
-6.03999969,-3.44488200,-0.49212600,4.18307100,0.01288755
-5.95999969,-3.01427100,-0.92273620,4.13693400,0.01107283
-5.87999969,-2.52214600,-1.43024100,4.01390200,0.00898130
-5.79999969,-1.96850400,-1.98388300,3.89087100,0.00682825
-5.71999969,-1.43024100,-2.50676700,3.76783900,0.00470596
-5.63999969,-0.92273620,-3.01427100,3.69094500,0.00282972
-5.55999969,-0.49212600,-3.44488200,3.70632400,0.00135335
-5.47999969,-0.13841040,-3.78321800,3.81397600,0.00030758
-5.39999969,0.10765260,-4.02928100,4.06003900,-0.00018455
-5.31999969,0.27682080,-4.19845000,4.39837600,-0.00018455
-5.23999968,0.33833660,-4.27534400,4.85974400,0.00030758
-5.15999968,0.35371550,-4.29072300,5.36724900,0.00116880
-5.07999968,0.30757870,-4.25996500,5.92089000,0.00224533
-4.99999968,0.23068400,-4.18307100,6.47453200,0.00347564
-4.91999968,0.16916830,-4.10617600,6.96665800,0.00470596
-4.83999968,0.10765260,-4.02928100,7.36651000,0.00584400
-4.75999968,0.04613681,-3.96776600,7.65871000,0.00679749
-4.67999968,0.01537894,-3.93700800,7.81250000,0.00753568
-4.59999968,-0.01537894,-3.92162900,7.82787800,0.00808932
-4.51999967,-0.04613681,-3.92162900,7.72022600,0.00842766
-4.43999967,-0.10765260,-3.93700800,7.47416300,0.00858145
-4.35999967,-0.16916830,-3.93700800,7.13582600,0.00858145
-4.27999967,-0.23068400,-3.95238700,6.70521600,0.00851993
-4.19999967,-0.30757870,-3.95238700,6.22846900,0.00836614
-4.11999967,-0.35371550,-3.95238700,5.72096400,0.00821235
-4.03999967,-0.33833660,-3.93700800,5.19808000,0.00805856
-3.95999967,-0.27682080,-3.93700800,4.67519700,0.00793553
-3.87999967,-0.10765260,-3.92162900,4.16769200,0.00787402
-3.79999966,0.13841040,-3.90625000,3.67556500,0.00784326
-3.71999966,0.49212600,-3.89087100,3.21419800,0.00784326
-3.63999966,0.92273620,-3.84473400,2.76820900,0.00787402
-3.55999966,1.43024100,-3.78321800,2.33759800,0.00787402
-3.47999966,1.96850400,-3.72170300,1.90698800,0.00790477
-3.39999966,2.52214600,-3.64480800,1.50713600,0.00790477
-3.31999966,3.01427100,-3.59867100,1.10728300,0.00790477
-3.23999966,3.44488200,-3.59867100,0.73818890,0.00787402
-3.15999966,3.73708200,-3.66018700,0.41523130,0.00784326
-3.07999966,3.90625000,-3.81397600,0.12303150,0.00784326
-2.99999965,3.90625000,-4.06003900,-0.10765260,0.00784326
-2.91999965,3.73708200,-4.41375400,-0.29219980,0.00784326
-2.83999965,3.44488200,-4.85974400,-0.43061020,0.00787402
-2.75999965,3.01427100,-5.38262700,-0.50750490,0.00790477
-2.67999965,2.52214600,-5.92089000,-0.53826270,0.00790477
-2.59999965,1.96850400,-6.47453200,-0.53826270,0.00790477
-2.51999965,1.43024100,-6.96665800,-0.50750490,0.00790477
-2.43999965,0.92273620,-7.36651000,-0.43061020,0.00787402
-2.35999965,0.49212600,-7.65871000,-0.30757870,0.00784326
-2.27999964,0.13841040,-7.81250000,-0.12303150,0.00784326
-2.19999964,-0.10765260,-7.82787800,0.13841040,0.00784326
-2.11999964,-0.27682080,-7.72022600,0.46136810,0.00784326
-2.03999964,-0.33833660,-7.47416300,0.83046260,0.00787402
-1.95999964,-0.35371550,-7.13582600,1.27645200,0.00790477
-1.87999964,-0.30757870,-6.70521600,1.73782000,0.00790477
-1.79999964,-0.23068400,-6.22846900,2.21456700,0.00790477
-1.71999964,-0.16916830,-5.72096400,2.70669300,0.00790477
-1.63999964,-0.09227362,-5.19808000,3.18344000,0.00787402
-1.55999963,-0.04613681,-4.65981800,3.59867100,0.00784326
-1.47999963,-0.01537894,-4.16769200,3.87549200,0.00784326
-1.39999963,0.00000000,-3.69094500,3.90625000,0.00784326
-1.31999963,0.01537894,-3.26033400,3.67556500,0.00784326
-1.23999963,0.00000000,-2.86048200,3.13730300,0.00787402
-1.15999963,0.00000000,-2.49138800,2.33759800,0.00790477
-1.07999963,0.00000000,-2.15305100,1.41486200,0.00790477
-0.99999963,0.00000000,-1.79933500,0.53826270,0.00790477
-0.91999963,0.00000000,-1.46099900,0.09227362,0.00790477
-0.83999963,0.00000000,-1.07652500,0.41523130,0.00787402
-0.75999962,-0.01537894,-0.67667320,1.44562000,0.00784326
-0.67999962,0.00000000,-0.23068400,3.02965000,0.00784326
-0.59999962,0.01537894,0.24606300,4.82898600,0.00784326
-0.51999962,0.04613681,0.78432570,6.53604800,0.00784326
-0.43999962,0.09227362,1.35334600,7.90477300,0.00787402
-0.35999962,0.16916830,1.93774600,8.93516300,0.00790477
-0.27999962,0.23068400,2.52214600,9.88865600,0.00790477
-0.19999962,0.30757870,3.06040800,11.34966000,0.00790477
-0.11999962,0.32295760,3.52177600,14.25627000,0.00787402
-0.03999961,0.26144190,3.87549200,19.70042000,0.00787402
0.04000039,0.15378940,4.04466000,28.75861000,0.00784326
0.12000039,0.04613681,4.01390200,42.32283000,0.00784326
0.20000039,-0.01537894,3.76783900,60.94672000,0.00787402
0.28000039,0.03075787,3.29109200,84.69180000,0.00793553
0.36000039,0.21530510,2.59904000,113.01980000,0.00805856
0.44000039,0.52288380,1.75319900,144.76190000,0.00821235
0.52000039,0.86122040,0.78432570,178.25720000,0.00836614
0.60000039,1.13804100,-0.24606300,211.36810000,0.00851993
0.68000039,1.01501000,-1.24569400,241.80300000,0.00858145
0.76000040,0.26144190,-2.18380900,267.31670000,0.00855069
0.84000040,-1.10728300,-2.99889300,285.97130000,0.00836614
0.92000040,-2.92199800,-3.66018700,296.30600000,0.00805856
1.00000040,-4.93663800,-4.13693400,297.59780000,0.00759720
1.08000040,-6.87438400,-4.45989200,289.86220000,0.00698204
1.16000040,-8.56606700,-4.61368100,273.86810000,0.00621309
1.24000040,-9.96555000,-4.62906000,251.01500000,0.00535187
1.32000040,-11.30352000,-4.56754400,223.24060000,0.00442913
1.40000040,-13.02596000,-4.42913300,192.63660000,0.00347564
1.48000041,-16.08637000,-4.30610200,161.37120000,0.00249139
1.56000041,-21.42286000,-4.22920700,131.35150000,0.00150714
1.64000041,-29.49680000,-4.16769200,104.13080000,0.00064592
1.72000041,-40.50812000,-4.04466000,80.72403000,0.00009227
1.80000041,-54.28764000,-3.75246000,61.57726000,0.00003076
1.88000041,-70.46629000,-3.21419800,46.62893000,0.00061516
1.96000041,-88.42888000,-2.39911400,35.41769000,0.00178396
2.04000041,-107.56030000,-1.33796700,27.14382000,0.00353716
2.12000041,-127.33760000,-0.16916830,20.94611000,0.00553642
2.20000042,-147.43790000,0.92273620,15.94796000,0.00744341
2.28000042,-168.09180000,1.44562000,11.44193000,0.00842766
2.36000042,-189.59150000,1.06114600,7.02817400,0.00787402
2.44000042,-211.99860000,-0.32295760,2.56828200,0.00572097
2.52000042,-235.23620000,-2.55290300,-1.83009300,0.00215305
2.60000042,-259.10430000,-5.39800600,-5.90551100,-0.00233760
2.68000042,-283.26460000,-8.53530900,-9.33501400,-0.00722810
2.76000042,-307.27110000,-11.71875000,-11.88792000,-0.01208784
2.84000042,-330.64710000,-14.82529000,-13.39505000,-0.01673228
2.92000042,-352.90050000,-18.02411000,-13.91794000,-0.02149975
3.00000043,-373.69270000,-21.73044000,-13.79491000,-0.02715920
3.08000043,-392.94720000,-26.88238000,-13.41043000,-0.03524852
3.16000043,-410.67910000,-34.44881000,-12.94906000,-0.04745940
3.24000043,-426.71930000,-44.95263000,-12.48770000,-0.06489912
3.32000043,-440.86800000,-58.65526000,-12.01095000,-0.08815207
3.40000043,-452.87890000,-75.44906000,-11.48807000,-0.11724900
3.48000043,-462.53690000,-94.94955000,-10.82677000,-0.15169780
3.56000043,-469.67270000,-116.55700000,-9.96555000,-0.19048350
3.64000043,-474.19410000,-139.50230000,-8.84288800,-0.23222190
3.72000044,-476.08570000,-163.13980000,-7.48954200,-0.27546750
3.80000044,-475.48600000,-186.93100000,-5.99778500,-0.31877460
3.88000044,-472.71770000,-210.76830000,-4.47527100,-0.36128200
3.96000044,-468.19630000,-234.69790000,-3.01427100,-0.40225150
4.04000044,-462.24470000,-258.61220000,-1.67630400,-0.44109870
4.12000044,-455.06270000,-282.40340000,-0.50750490,-0.47723920
4.20000044,-446.81960000,-305.85630000,0.44598910,-0.51042690
4.28000044,-437.53070000,-328.72480000,1.19955700,-0.54038510
4.36000044,-427.15000000,-350.71660000,1.75319900,-0.56699070
4.44000045,-415.56960000,-371.43210000,2.13767200,-0.59012060
4.52000045,-402.74360000,-390.51730000,2.41449300,-0.60959030
4.60000045,-388.50270000,-407.61870000,2.61441900,-0.62527680
4.68000045,-372.87770000,-422.56700000,2.81434500,-0.63699560
4.76000045,-356.28380000,-435.19310000,3.04502900,-0.64459280
4.84000045,-339.19780000,-445.23560000,3.33722900,-0.64769930
4.92000045,-322.14260000,-452.49440000,3.70632400,-0.64600760
5.00000045,-305.61020000,-456.73900000,4.15231300,-0.63924090
5.08000045,-289.92370000,-457.84630000,4.64443900,-0.62727610
5.16000045,-275.19070000,-455.81630000,5.18270100,-0.61023620
5.24000046,-261.34960000,-450.74120000,5.72096400,-0.58849040
5.32000046,-248.09300000,-442.88260000,6.22846900,-0.56271530
5.40000046,-234.79020000,-432.53260000,6.70521600,-0.53371060
5.48000046,-220.87230000,-420.19870000,7.13582600,-0.50252220
5.56000046,-206.29300000,-406.43450000,7.47416300,-0.47034940
5.64000046,-191.25240000,-391.71690000,7.72022600,-0.43826900
5.72000046,-176.11960000,-376.46100000,7.82787800,-0.40720350
5.80000046,-161.34040000,-360.89750000,7.81250000,-0.37773750
5.88000046,-147.31480000,-345.16490000,7.65871000,-0.35020910
5.96000047,-134.33500000,-329.23230000,7.36651000,-0.32458790
6.04000047,-122.46250000,-313.03820000,6.96665800,-0.30053520
6.12000047,-111.60490000,-296.47510000,6.47453200,-0.27762060
6.20000047,-101.22420000,-279.29680000,5.92089000,-0.25510580
6.28000047,-90.84338000,-261.47270000,5.38262700,-0.23249880
6.36000047,-80.37032000,-243.34090000,4.87512300,-0.20986100
6.44000047,-69.94341000,-225.39370000,4.42913300,-0.18771530
6.52000047,-59.79330000,-208.20000000,4.06003900,-0.16673840
6.60000047,-50.22760000,-192.25210000,3.79859700,-0.14760700
6.68000048,-41.52312000,-177.94970000,3.61405000,-0.13090550
6.76000048,-33.89517000,-165.38510000,3.50639700,-0.11691070
6.84000048,-27.40526000,-154.46600000,3.42950300,-0.10559180
6.92000048,-21.94574000,-144.86960000,3.41412400,-0.09654897
7.00000048,-17.16289000,-135.85750000,3.41412400,-0.08873647
7.08000048,-12.71838000,-126.78390000,3.42950300,-0.08123154
7.16000048,-8.56606700,-117.47970000,3.50639700,-0.07369587
7.24000048,-4.75209100,-108.02160000,3.61405000,-0.06606791
7.32000048,-1.43024100,-98.67125000,3.79859700,-0.05856299
7.40000048,1.24569400,-89.75147000,4.06003900,-0.05142717
7.48000049,3.09116600,-81.60063000,4.42913300,-0.04506028
7.56000049,4.06003900,-74.44943000,4.87512300,-0.03973917
7.64000049,4.15231300,-68.35937000,5.38262700,-0.03558686
7.72000049,3.47564000,-63.25356000,5.92089000,-0.03257259
7.80000049,2.32221900,-58.67064000,6.47453200,-0.03023499
7.88000049,0.96887300,-54.19537000,6.96665800,-0.02823573
7.96000049,-0.44598910,-49.72010000,7.36651000,-0.02645177
8.04000049,-1.86085100,-45.30634000,7.65871000,-0.02497539
8.12000049,-3.24495600,-41.13865000,7.81250000,-0.02386811
8.20000050,-4.61368100,-37.46309000,7.82787800,-0.02334523
8.28000050,-6.01316400,-34.46420000,7.72022600,-0.02349902
8.36000050,-7.48954200,-32.28039000,7.47416300,-0.02442175
8.44000050,-9.07357200,-30.91166000,7.13582600,-0.02605192
8.52000050,-10.73450000,-30.20423000,6.70521600,-0.02823573
8.60000050,-12.44156000,-29.78900000,6.22846900,-0.03066560
8.68000050,-14.13324000,-29.21998000,5.72096400,-0.03306472
8.76000050,-15.77879000,-28.26648000,5.19808000,-0.03527928
8.84000050,-17.37820000,-26.79011000,4.69057600,-0.03712475
8.92000051,-18.90071000,-24.74471000,4.16769200,-0.03863189
9.00000051,-20.30020000,-22.20718000,3.67556500,-0.03973917
9.08000051,-21.56127000,-19.28519000,3.16806100,-0.04047736
9.16000051,-22.68393000,-16.10175000,2.67593500,-0.04093873
9.24000051,-23.63743000,-12.82603000,2.16843000,-0.04118479
9.32000051,-24.45251000,-9.53494100,1.67630400,-0.04121555
9.40000051,-25.12918000,-6.27460600,1.19955700,-0.04109252
9.48000051,-25.71358000,-2.99889300,0.76894680,-0.04078494
9.56000051,-26.23647000,0.24606300,0.39985230,-0.04035433
9.64000051,-26.72859000,3.39874500,0.15378940,-0.03989296
9.72000052,-27.22072000,6.39763700,0.01537894,-0.03943159
9.80000052,-27.69746000,9.24274100,0.01537894,-0.03903174
9.88000052,-28.18959000,11.85716000,0.15378940,-0.03869341
9.96000052,-28.68172000,14.22552000,0.39985230,-0.03844734
10.04000052,-29.11233000,16.36319000,0.76894680,-0.03820128
10.12000052,-29.45066000,18.23942000,1.19955700,-0.03795522
10.20000052,-29.66597000,19.86959000,1.67630400,-0.03752461
10.28000052,-29.65059000,21.25369000,2.16843000,-0.03684793
10.36000052,-29.38915000,22.36097000,2.67593500,-0.03580217
10.44000053,-28.82013000,23.11454000,3.16806100,-0.03435655
10.52000053,-27.98966000,23.49901000,3.67556500,-0.03248031
10.60000053,-26.86700000,23.46826000,4.16769200,-0.03017347
10.68000053,-25.51365000,23.05302000,4.69057600,-0.02752830
10.76000053,-23.96038000,22.25332000,5.19808000,-0.02454478
10.84000053,-22.23794000,21.09990000,5.72096400,-0.02137672
10.92000053,-20.39247000,19.63890000,6.22846900,-0.01805487
11.00000053,-18.42397000,17.93184000,6.70521600,-0.01464075
11.08000053,-16.30167000,16.02485000,7.12044700,-0.01119587
11.16000053,-14.01021000,13.90256000,7.45878400,-0.00778174
