Time,Channel A,Channel B,Channel C,Channel D
(ns),(mV),(mV),(mV),(V)

-15.30566083,-3.90625000,-4.01390200,7.81250000,-0.00024606
-15.22566082,-3.73708200,-4.01390200,7.62795300,-0.00061516
-15.14566082,-3.44488200,-3.78321800,7.28961600,-0.00086122
-15.06566082,-3.01427100,-3.36798700,6.79749000,-0.00101501
-14.98566082,-2.52214600,-2.82972400,6.22846900,-0.00107653
-14.90566082,-1.96850400,-2.21456700,5.62869100,-0.00107653
-14.82566082,-1.43024100,-1.59940900,5.02891200,-0.00101501
-14.74566082,-0.92273620,-1.03038900,4.52140800,-0.00086122
-14.66566082,-0.49212600,-0.53826270,4.15231300,-0.00061516
-14.58566082,-0.13841040,-0.15378940,3.95238700,-0.00024606
-14.50566081,0.10765260,0.12303150,3.95238700,0.00027682
-14.42566081,0.27682080,0.32295760,4.15231300,0.00098425
-14.34566081,0.33833660,0.44598910,4.52140800,0.00187623
-14.26566081,0.35371550,0.50750490,5.02891200,0.00286048
-14.18566081,0.30757870,0.53826270,5.62869100,0.00393701
-14.10566081,0.23068400,0.53826270,6.22846900,0.00504429
-14.02566081,0.15378940,0.50750490,6.79749000,0.00605930
-13.94566081,0.09227362,0.43061020,7.28961600,0.00688976
-13.86566081,0.03075787,0.30757870,7.62795300,0.00750492
-13.78566080,0.00000000,0.12303150,7.81250000,0.00781250
-13.70566080,0.00000000,-0.13841040,7.82787800,0.00778174
-13.62566080,0.03075787,-0.46136810,7.67408900,0.00741265
-13.54566080,0.09227362,-0.83046260,7.38188900,0.00670522
-13.46566080,0.15378940,-1.27645200,6.96665800,0.00572097
-13.38566080,0.23068400,-1.73782000,6.47453200,0.00455217
-13.30566080,0.30757870,-2.21456700,5.92089000,0.00335261
-13.22566080,0.33833660,-2.67593500,5.38262700,0.00218381
-13.14566080,0.33833660,-3.10654500,4.85974400,0.00116880
-13.06566080,0.26144190,-3.49101900,4.41375400,0.00046137
-12.98566079,0.10765260,-3.79859700,4.06003900,0.00006152
-12.90566079,-0.12303150,-4.01390200,3.81397600,0.00003076
-12.82566079,-0.44598910,-4.15231300,3.66018700,0.00033834
-12.74566079,-0.83046260,-4.18307100,3.59867100,0.00098425
-12.66566079,-1.26107300,-4.12155500,3.59867100,0.00184547
-12.58566079,-1.73782000,-4.01390200,3.64480800,0.00286048
-12.50566079,-2.21456700,-3.89087100,3.72170300,0.00396777
-12.42566079,-2.67593500,-3.76783900,3.78321800,0.00501353
-12.34566079,-3.09116600,-3.69094500,3.82935500,0.00602854
-12.26566078,-3.46026100,-3.70632400,3.87549200,0.00688976
-12.18566078,-3.78321800,-3.81397600,3.90625000,0.00756644
-12.10566078,-4.04466000,-4.06003900,3.93700800,0.00805856
-12.02566078,-4.27534400,-4.39837600,3.98314500,0.00839690
-11.94566078,-4.45989200,-4.85974400,4.04466000,0.00855069
-11.86566078,-4.61368100,-5.36724900,4.10617600,0.00858145
-11.78566078,-4.73671200,-5.92089000,4.18307100,0.00851993
-11.70566078,-4.79822800,-6.47453200,4.25996500,0.00836614
-11.62566078,-4.79822800,-6.96665800,4.29072300,0.00821235
-11.54566077,-4.70595500,-7.36651000,4.29072300,0.00805856
-11.46566077,-4.50602900,-7.65871000,4.21382900,0.00793553
-11.38566077,-4.15231300,-7.81250000,4.04466000,0.00784326
-11.30566077,-3.64480800,-7.82787800,3.76783900,0.00784326
-11.22566077,-2.98351400,-7.72022600,3.39874500,0.00793553
-11.14566077,-2.16843000,-7.47416300,2.92199800,0.00805856
-11.06566077,-1.24569400,-7.13582600,2.35297700,0.00821235
-10.98566077,-0.24606300,-6.70521600,1.73782000,0.00836614
-10.90566077,0.78432570,-6.22846900,1.12266200,0.00851993
-10.82566077,1.75319900,-5.72096400,0.58439960,0.00858145
-10.74566076,2.61441900,-5.19808000,0.15378940,0.00855069
-10.66566076,3.30647100,-4.67519700,-0.09227362,0.00839690
-10.58566076,3.76783900,-4.16769200,-0.09227362,0.00805856
-10.50566076,4.01390200,-3.67556500,0.15378940,0.00756644
-10.42566076,3.99852300,-3.21419800,0.67667320,0.00688976
-10.34566076,3.78321800,-2.76820900,1.41486200,0.00602854
-10.26566076,3.36798700,-2.33759800,2.35297700,0.00501353
-10.18566076,2.82972400,-1.90698800,3.41412400,0.00396777
-10.10566076,2.21456700,-1.50713600,4.49065000,0.00286048
-10.02566075,1.59940900,-1.10728300,5.53641700,0.00184547
-9.94566075,1.01501000,-0.73818890,6.45915300,0.00098425
-9.86566075,0.53826270,-0.39985230,7.19734200,0.00036909
-9.78566075,0.15378940,-0.12303150,7.68946800,0.00003076
-9.70566075,-0.12303150,0.10765260,7.93553100,0.00003076
-9.62566075,-0.27682080,0.24606300,7.90477300,0.00036909
-9.54566075,-0.35371550,0.32295760,7.62795300,0.00098425
-9.46566075,-0.35371550,0.33833660,7.15120500,0.00184547
-9.38566075,-0.30757870,0.30757870,6.53604800,0.00286048
-9.30566074,-0.23068400,0.23068400,5.85937500,0.00396777
-9.22566074,-0.16916830,0.16916830,5.19808000,0.00501353
-9.14566074,-0.09227362,0.09227362,4.61368100,0.00602854
-9.06566074,-0.04613681,0.04613681,4.18307100,0.00688976
-8.98566074,-0.01537894,0.01537894,3.95238700,0.00756644
-8.90566074,0.00000000,0.00000000,3.93700800,0.00805856
-8.82566074,0.01537894,-0.01537894,4.13693400,0.00839690
-8.74566074,0.00000000,0.00000000,4.50602900,0.00855069
-8.66566074,0.00000000,0.00000000,5.02891200,0.00858145
-8.58566074,0.00000000,0.00000000,5.62869100,0.00851993
-8.50566073,0.00000000,0.00000000,6.22846900,0.00836614
-8.42566073,0.00000000,0.00000000,6.79749000,0.00821235
-8.34566073,0.00000000,0.00000000,7.27423700,0.00805856
-8.26566073,0.01537894,-0.01537894,7.61257400,0.00793553
-8.18566073,0.00000000,0.00000000,7.81250000,0.00787402
-8.10566073,-0.01537894,0.01537894,7.84325700,0.00784326
-8.02566073,-0.04613681,0.04613681,7.72022600,0.00784326
-7.94566073,-0.09227362,0.09227362,7.47416300,0.00787402
-7.86566073,-0.16916830,0.16916830,7.13582600,0.00787402
-7.78566072,-0.23068400,0.23068400,6.70521600,0.00790477
-7.70566072,-0.30757870,0.30757870,6.22846900,0.00790477
-7.62566072,-0.35371550,0.35371550,5.72096400,0.00790477
-7.54566072,-0.33833660,0.33833660,5.19808000,0.00787402
-7.46566072,-0.27682080,0.27682080,4.69057600,0.00784326
-7.38566072,-0.10765260,0.10765260,4.16769200,0.00784326
-7.30566072,0.13841040,-0.13841040,3.67556500,0.00784326
-7.22566072,0.49212600,-0.49212600,3.16806100,0.00784326
-7.14566072,0.92273620,-0.92273620,2.67593500,0.00787402
-7.06566072,1.43024100,-1.43024100,2.16843000,0.00790477
-6.98566071,1.96850400,-1.96850400,1.67630400,0.00790477
-6.90566071,2.52214600,-2.52214600,1.19955700,0.00790477
-6.82566071,3.02965000,-3.02965000,0.76894680,0.00790477
-6.74566071,3.44488200,-3.44488200,0.39985230,0.00787402
-6.66566071,3.75246000,-3.75246000,0.13841040,0.00784326
-6.58566071,3.90625000,-3.90625000,0.01537894,0.00784326
-6.50566071,3.89087100,-3.89087100,0.03075787,0.00784326
-6.42566071,3.70632400,-3.70632400,0.19992620,0.00784326
-6.34566071,3.35260800,-3.35260800,0.50750490,0.00787402
-6.26566070,2.86048200,-2.86048200,0.92273620,0.00790477
-6.18566070,2.27608300,-2.27608300,1.43024100,0.00790477
-6.10566070,1.67630400,-1.67630400,1.98388300,0.00790477
-6.02566070,1.09190400,-1.09190400,2.50676700,0.00790477
-5.94566070,0.58439960,-0.58439960,3.01427100,0.00787402
-5.86566070,0.23068400,-0.23068400,3.44488200,0.00784326
-5.78566070,0.03075787,-0.03075787,3.78321800,0.00784326
-5.70566070,0.01537894,-0.01537894,4.02928100,0.00784326
-5.62566070,0.16916830,-0.16916830,4.19845000,0.00784326
-5.54566069,0.49212600,-0.49212600,4.27534400,0.00787402
-5.46566069,0.92273620,-0.92273620,4.29072300,0.00790477
-5.38566069,1.43024100,-1.43024100,4.25996500,0.00790477
-5.30566069,1.98388300,-1.98388300,4.18307100,0.00790477
-5.22566069,2.50676700,-2.52214600,4.10617600,0.00790477
-5.14566069,2.99889300,-3.01427100,4.02928100,0.00787402
-5.06566069,3.41412400,-3.44488200,3.96776600,0.00784326
-4.98566069,3.76783900,-3.78321800,3.93700800,0.00784326
-4.90566069,4.06003900,-4.02928100,3.92162900,0.00784326
-4.82566069,4.29072300,-4.15231300,3.92162900,0.00784326
-4.74566068,4.47527100,-4.18307100,3.93700800,0.00787402
-4.66566068,4.61368100,-4.13693400,3.93700800,0.00790477
-4.58566068,4.73671200,-4.01390200,3.95238700,0.00790477
-4.50566068,4.79822800,-3.89087100,3.95238700,0.00790477
-4.42566068,4.79822800,-3.75246000,3.95238700,0.00790477
-4.34566068,4.70595500,-3.67556500,3.93700800,0.00787402
-4.26566068,4.50602900,-3.69094500,3.92162900,0.00784326
-4.18566068,4.15231300,-3.81397600,3.92162900,0.00784326
-4.10566068,3.64480800,-4.06003900,3.92162900,0.00784326
-4.02566067,2.98351400,-4.44451300,3.92162900,0.00784326
-3.94566067,2.16843000,-4.95201700,3.93700800,0.00787402
-3.86566067,1.24569400,-5.53641700,3.95238700,0.00790477
-3.78566067,0.24606300,-6.16695300,3.95238700,0.00790477
-3.70566067,-0.78432570,-6.78211100,3.95238700,0.00790477
-3.62566067,-1.75319900,-7.32037400,3.95238700,0.00790477
-3.54566067,-2.61441900,-7.72022600,3.93700800,0.00787402
-3.46566067,-3.30647100,-7.93553100,3.92162900,0.00784326
-3.38566067,-3.76783900,-7.93553100,3.92162900,0.00784326
-3.30566066,-4.01390200,-7.68946800,3.92162900,0.00784326
-3.22566066,-3.99852300,-7.18196300,3.92162900,0.00784326
-3.14566066,-3.78321800,-6.45915300,3.93700800,0.00787402
-3.06566066,-3.36798700,-5.53641700,3.95238700,0.00790477
-2.98566066,-2.82972400,-4.49065000,3.95238700,0.00790477
-2.90566066,-2.21456700,-3.41412400,3.95238700,0.00790477
-2.82566066,-1.59940900,-2.35297700,3.95238700,0.00787402
-2.74566066,-1.01501000,-1.41486200,3.93700800,0.00787402
-2.66566066,-0.53826270,-0.67667320,3.92162900,0.00784326
-2.58566066,-0.15378940,-0.15378940,3.92162900,0.00784326
-2.50566065,0.12303150,0.09227362,3.92162900,0.00787402
-2.42566065,0.27682080,0.09227362,3.92162900,0.00793553
-2.34566065,0.35371550,-0.15378940,3.93700800,0.00805856
-2.26566065,0.35371550,-0.58439960,3.95238700,0.00821235
-2.18566065,0.30757870,-1.12266200,3.95238700,0.00836614
-2.10566065,0.23068400,-1.73782000,3.95238700,0.00851993
-2.02566065,0.16916830,-2.35297700,3.95238700,0.00858145
-1.94566065,0.09227362,-2.90661900,3.95238700,0.00855069
-1.86566065,0.04613681,-3.38336600,3.95238700,0.00839690
-1.78566064,0.01537894,-3.76783900,3.93700800,0.00805856
-1.70566064,0.00000000,-4.06003900,3.90625000,0.00756644
-1.62566064,-0.01537894,-4.24458600,3.84473400,0.00688976
-1.54566064,0.00000000,-4.38299700,3.75246000,0.00602854
-1.46566064,0.00000000,-4.45989200,3.61405000,0.00501353
-1.38566064,0.00000000,-4.49065000,3.47564000,0.00396777
-1.30566064,0.00000000,-4.49065000,3.33722900,0.00286048
-1.22566064,0.00000000,-4.44451300,3.35260800,0.00184547
-1.14566064,0.00000000,-4.36761800,3.59867100,0.00098425
-1.06566063,0.00000000,-4.22920700,3.92162900,0.00036909
-0.98566063,0.00000000,-4.04466000,4.02928100,0.00003076
-0.90566063,0.00000000,-3.78321800,3.66018700,0.00003076
-0.82566063,0.00000000,-3.47564000,2.53752400,0.00036909
-0.74566063,0.00000000,-3.10654500,0.56902060,0.00098425
-0.66566063,0.00000000,-2.67593500,-2.12229300,0.00184547
-0.58566063,0.00000000,-2.21456700,-5.12118600,0.00286048
-0.50566063,0.00000000,-1.73782000,-7.75098400,0.00396777
-0.42566063,-0.01537894,-1.27645200,-8.98129900,0.00501353
-0.34566063,-0.03075787,-0.83046260,-7.73560500,0.00602854
-0.26566062,-0.04613681,-0.46136810,-3.06040800,0.00688976
-0.18566062,-0.03075787,-0.13841040,5.70558500,0.00756644
-0.10566062,0.04613681,0.12303150,18.94685000,0.00805856
-0.02566062,0.16916830,0.30757870,36.55573000,0.00839690
0.05433938,0.38447340,0.43061020,58.00935000,0.00855069
0.13433938,0.64591530,0.50750490,82.36958000,0.00858145
0.21433938,0.95349410,0.53826270,108.36000000,0.00851993
0.29433938,1.21493600,0.53826270,134.55030000,0.00836614
0.37433938,1.30720900,0.50750490,159.46420000,0.00821235
0.45433939,1.12266200,0.43061020,181.73290000,0.00805856
0.53433939,0.70743110,0.30757870,200.29530000,0.00793553
0.61433939,0.21530510,0.12303150,214.39780000,0.00784326
0.69433939,-0.16916830,-0.13841040,223.71740000,0.00784326
0.77433939,-0.26144190,-0.46136810,228.33110000,0.00793553
0.85433939,0.00000000,-0.83046260,228.62330000,0.00805856
0.93433939,0.61515740,-1.27645200,225.22450000,0.00821235
1.01433939,1.33796700,-1.73782000,218.87300000,0.00836614
1.09433939,1.78395700,-2.21456700,210.30690000,0.00851993
1.17433939,1.23031500,-2.69131400,200.14150000,0.00855069
1.25433940,-1.07652500,-3.13730300,188.82260000,0.00848917
1.33433940,-5.41338600,-3.53715500,176.62710000,0.00830463
1.41433940,-11.79564000,-3.82935500,163.66260000,0.00799705
1.49433940,-19.99262000,-3.96776600,149.91390000,0.00765871
1.57433940,-29.63521000,-3.93700800,135.31930000,0.00732037
1.65433940,-40.26205000,-3.70632400,119.83270000,0.00698204
1.73433940,-51.50406000,-3.32185000,103.53100000,0.00664370
1.81433940,-63.17667000,-2.82972400,86.62955000,0.00633612
1.89433940,-75.38755000,-2.36835600,69.46665000,0.00590551
1.97433941,-88.81336000,-2.13767200,52.54982000,0.00513657
2.05433941,-104.16150000,-2.32221900,36.50959000,0.00387549
2.13433941,-121.84730000,-2.86048200,21.91498000,0.00224533
2.21433941,-141.99370000,-3.58329200,9.33501400,0.00067667
2.29433941,-164.50850000,-4.21382900,-0.86122040,-0.00049213
2.37433941,-189.00710000,-4.55216500,-8.47379300,-0.00089198
2.45433941,-214.90520000,-4.44451300,-13.57960000,-0.00027682
2.53433941,-241.49540000,-3.92162900,-16.44008000,0.00116880
2.61433941,-268.03950000,-3.24495600,-17.54737000,0.00301427
2.69433942,-293.92220000,-2.93737700,-17.56274000,0.00433686
2.77433942,-318.91300000,-3.92162900,-17.14751000,0.00359867
2.85433942,-342.87340000,-7.15120500,-16.62463000,-0.00070743
2.93433942,-365.48040000,-13.10285000,-16.19402000,-0.00938115
3.01433942,-386.41110000,-21.96112000,-15.85568000,-0.02288386
3.09433942,-405.37340000,-33.60298000,-15.50197000,-0.04100025
3.17433942,-422.10570000,-47.61319000,-14.94833000,-0.06317668
3.25433942,-436.39270000,-63.46887000,-14.04097000,-0.08858268
3.33433942,-448.09610000,-80.53949000,-12.67224000,-0.11617250
3.41433942,-457.21580000,-98.39443000,-10.85753000,-0.14514640
3.49433943,-463.82870000,-116.72610000,-8.75061400,-0.17485850
3.57433943,-468.28860000,-135.81140000,-6.58218500,-0.20540110
3.65433943,-470.93380000,-156.00390000,-4.45989200,-0.23708170
3.73433943,-471.97960000,-177.41140000,-2.52214600,-0.26999260
3.81433943,-471.50280000,-200.06460000,-0.78432570,-0.30413390
3.89433943,-469.48820000,-223.79430000,0.72281000,-0.33941310
3.97433943,-465.87410000,-248.29290000,1.98388300,-0.37549210
4.05433943,-460.55300000,-273.12990000,3.02965000,-0.41184790
4.13433943,-453.38640000,-297.73620000,3.92162900,-0.44774240
4.21433944,-444.32820000,-321.55820000,4.69057600,-0.48231420
4.29433944,-433.36300000,-344.11910000,5.38262700,-0.51457920
4.37433944,-420.64470000,-365.14210000,5.99778500,-0.54383000
4.45433944,-406.61910000,-384.48880000,6.58218500,-0.56929750
4.53433944,-391.71690000,-401.85160000,7.13582600,-0.59024360
4.61433944,-376.39950000,-416.96910000,7.62795300,-0.60605320
4.69433944,-361.03590000,-429.61060000,8.04318300,-0.61632630
4.77433944,-345.87230000,-439.60690000,8.38152000,-0.62094000
4.85433944,-331.00090000,-446.83500000,8.61220400,-0.61995570
4.93433945,-316.32930000,-451.26410000,8.73523500,-0.61380410
5.01433945,-301.65780000,-452.97120000,8.75061400,-0.60300810
5.09433945,-286.50960000,-452.09460000,8.68909800,-0.58833660
5.17433945,-270.56160000,-448.92650000,8.55068800,-0.57052780
5.25433945,-253.92160000,-443.78990000,8.39689900,-0.55047370
5.33433945,-236.92790000,-436.90020000,8.19697300,-0.52878930
5.41433945,-220.04180000,-428.42640000,7.96628900,-0.50596700
5.49433945,-203.78630000,-418.43010000,7.72022600,-0.48228350
5.57433945,-188.54570000,-406.94200000,7.42802600,-0.45780020
5.65433945,-174.55090000,-393.96220000,7.12044700,-0.43257870
5.73433946,-161.81720000,-379.50600000,6.78211100,-0.40655760
5.81433946,-150.12920000,-363.63490000,6.39763700,-0.37967520
5.89433946,-138.87180000,-346.39510000,5.99778500,-0.35187010
5.97433946,-127.44520000,-328.03270000,5.56717500,-0.32329600
6.05433946,-115.72650000,-309.05510000,5.10580700,-0.29459890
6.13433946,-103.83860000,-290.07750000,4.64443900,-0.26654770
6.21433946,-92.04293000,-271.65350000,4.16769200,-0.23997290
6.29433946,-80.70866000,-254.26000000,3.67556500,-0.21564350
6.37433946,-70.14333000,-238.20430000,3.18344000,-0.19402070
6.45433947,-60.63914000,-223.56360000,2.67593500,-0.17528910
6.53433947,-52.24224000,-210.16850000,2.16843000,-0.15920280
6.61433947,-44.90649000,-197.72700000,1.67630400,-0.14533100
6.69433947,-38.21666000,-185.57760000,1.19955700,-0.13262790
6.77433947,-31.78826000,-173.19760000,0.75356790,-0.12020180
6.85433947,-25.57517000,-160.55610000,0.39985230,-0.10783710
6.93433947,-19.66966000,-147.83770000,0.13841040,-0.09562623
7.01433947,-14.24089000,-135.41150000,0.00000000,-0.08393824
7.09433947,-9.50418300,-123.69280000,0.03075787,-0.07326525
7.17433948,-5.64407000,-113.06590000,0.23068400,-0.06406865
7.25433948,-2.76820900,-103.74630000,0.59977850,-0.05665600
7.33433948,-0.90735720,-95.76463000,1.09190400,-0.05105807
7.41433948,0.09227362,-88.95177000,1.67630400,-0.04709030
7.49433948,0.50750490,-82.73868000,2.27608300,-0.04407603
7.57433948,0.64591530,-76.57172000,2.86048200,-0.04130783
7.65433948,0.64591530,-70.29712000,3.35260800,-0.03853961
7.73433948,0.50750490,-63.99175000,3.70632400,-0.03564838
7.81433948,0.21530510,-57.84018000,3.89087100,-0.03278789
7.89433948,-0.29219980,-52.11921000,3.89087100,-0.03005044
7.97433949,-1.09190400,-47.07492000,3.70632400,-0.02768209
8.05433949,-2.24532500,-42.87647000,3.35260800,-0.02586737
8.13433949,-3.75246000,-39.58538000,2.86048200,-0.02463706
8.21433949,-5.56717500,-37.06324000,2.27608300,-0.02402190
8.29433949,-7.53567900,-34.94094000,1.67630400,-0.02374508
8.37433949,-9.53494100,-32.78789000,1.09190400,-0.02356053
8.45433949,-11.48807000,-30.41954000,0.58439960,-0.02346826
8.53433949,-13.30278000,-27.80512000,0.23068400,-0.02340674
8.61433949,-14.94833000,-24.97539000,0.03075787,-0.02346826
8.69433950,-16.37857000,-22.09953000,0.01537894,-0.02365281
8.77433950,-17.57812000,-19.30056000,0.16916830,-0.02405266
8.85433950,-18.57775000,-16.73228000,0.49212600,-0.02469857
8.93433950,-19.37746000,-14.48696000,0.92273620,-0.02555979
9.01433950,-20.02337000,-12.50307000,1.43024100,-0.02657480
9.09433950,-20.57702000,-10.65760000,1.98388300,-0.02768209
9.17433950,-21.08452000,-8.71985600,2.50676700,-0.02869710
9.25433950,-21.63816000,-6.58218500,3.01427100,-0.02958908
9.33433950,-22.29946000,-4.16769200,3.44488200,-0.03038878
9.41433951,-23.08378000,-1.46099900,3.78321800,-0.03106545
9.49433951,-24.02190000,1.50713600,4.02928100,-0.03168061
9.57433951,-25.11380000,4.69057600,4.19845000,-0.03223425
9.65433951,-26.29798000,7.96628900,4.27534400,-0.03275714
9.73433951,-27.54367000,11.25738000,4.29072300,-0.03321850
9.81433951,-28.74323000,14.47158000,4.25996500,-0.03364911
9.89433951,-29.83514000,17.53199000,4.18307100,-0.03392594
9.97433951,-30.71173000,20.39247000,4.10617600,-0.03395669
10.05433951,-31.32689000,22.94537000,4.02928100,-0.03367987
10.13433951,-31.60371000,25.11380000,3.96776600,-0.03303396
10.21433952,-31.54220000,26.80548000,3.93700800,-0.03201895
10.29433952,-31.12697000,27.97429000,3.92162900,-0.03063484
10.37433952,-30.40416000,28.63558000,3.92162900,-0.02891240
10.45433952,-29.40452000,28.77399000,3.93700800,-0.02688238
10.53433952,-28.14345000,28.45103000,3.93700800,-0.02460630
10.61433952,-26.69783000,27.74360000,3.95238700,-0.02214567
10.69433952,-25.05229000,26.71321000,3.95238700,-0.01956201
10.77433952,-23.23757000,25.45214000,3.95238700,-0.01688607
10.85433952,-21.23831000,23.97576000,3.93700800,-0.01417938
10.93433953,-19.10064000,22.33022000,3.92162900,-0.01153420
11.01433953,-16.83994000,20.54626000,3.92162900,-0.00904282
11.09433953,-14.51772000,18.63927000,3.92162900,-0.00670522
11.17433953,-12.14936000,16.64001000,3.92162900,-0.00461368
11.25433953,-9.79638200,14.54847000,3.93700800,-0.00273745
11.33433953,-7.44340500,12.38004000,3.95238700,-0.00107653
11.41433953,-5.10580700,10.15010000,3.95238700,0.00039985
11.49433953,-2.79896600,7.82787800,3.95238700,0.00175320
11.57433953,-0.44598910,5.41338600,3.93700800,0.00310655
11.65433953,1.93774600,2.87586100,3.93700800,0.00445989
11.73433954,4.33686000,0.23068400,3.92162900,0.00581324
