Time,Channel A,Channel B,Channel C,Channel D
(ns),(mV),(mV),(mV),(V)

-15.29491583,0.12303150,0.10765260,7.82787800,0.00784326
-15.21491582,0.30757870,0.29219980,7.67408900,0.00784326
-15.13491582,0.43061020,0.43061020,7.38188900,0.00787402
-15.05491582,0.50750490,0.50750490,6.96665800,0.00790477
-14.97491582,0.53826270,0.53826270,6.47453200,0.00790477
-14.89491582,0.53826270,0.53826270,5.92089000,0.00790477
-14.81491582,0.50750490,0.50750490,5.38262700,0.00790477
-14.73491582,0.43061020,0.43061020,4.85974400,0.00787402
-14.65491582,0.30757870,0.30757870,4.41375400,0.00784326
-14.57491582,0.12303150,0.12303150,4.06003900,0.00784326
-14.49491581,-0.13841040,-0.13841040,3.81397600,0.00784326
-14.41491581,-0.46136810,-0.46136810,3.66018700,0.00784326
-14.33491581,-0.83046260,-0.83046260,3.59867100,0.00787402
-14.25491581,-1.27645200,-1.27645200,3.59867100,0.00790477
-14.17491581,-1.73782000,-1.73782000,3.64480800,0.00790477
-14.09491581,-2.21456700,-2.21456700,3.72170300,0.00790477
-14.01491581,-2.67593500,-2.67593500,3.78321800,0.00790477
-13.93491581,-3.10654500,-3.10654500,3.84473400,0.00787402
-13.85491581,-3.49101900,-3.47564000,3.89087100,0.00784326
-13.77491580,-3.79859700,-3.78321800,3.92162900,0.00784326
-13.69491580,-4.02928100,-4.04466000,3.92162900,0.00784326
-13.61491580,-4.18307100,-4.22920700,3.89087100,0.00784326
-13.53491580,-4.27534400,-4.36761800,3.84473400,0.00787402
-13.45491580,-4.29072300,-4.44451300,3.78321800,0.00790477
-13.37491580,-4.25996500,-4.49065000,3.72170300,0.00790477
-13.29491580,-4.18307100,-4.49065000,3.64480800,0.00790477
-13.21491580,-4.10617600,-4.44451300,3.59867100,0.00790477
-13.13491580,-4.02928100,-4.36761800,3.59867100,0.00787402
-13.05491580,-3.96776600,-4.22920700,3.66018700,0.00784326
-12.97491579,-3.92162900,-4.04466000,3.81397600,0.00784326
-12.89491579,-3.92162900,-3.78321800,4.04466000,0.00784326
-12.81491579,-3.96776600,-3.47564000,4.36761800,0.00784326
-12.73491579,-4.02928100,-3.10654500,4.76747000,0.00787402
-12.65491579,-4.10617600,-2.67593500,5.21345900,0.00790477
-12.57491579,-4.18307100,-2.21456700,5.69020700,0.00790477
-12.49491579,-4.25996500,-1.73782000,6.16695300,0.00790477
-12.41491579,-4.29072300,-1.27645200,6.61294300,0.00790477
-12.33491579,-4.27534400,-0.83046260,7.04355200,0.00787402
-12.25491578,-4.18307100,-0.46136810,7.39726800,0.00784326
-12.17491578,-4.02928100,-0.13841040,7.70484700,0.00784326
-12.09491578,-3.79859700,0.12303150,7.96628900,0.00784326
-12.01491578,-3.49101900,0.30757870,8.16621500,0.00784326
-11.93491578,-3.10654500,0.43061020,8.30462600,0.00787402
-11.85491578,-2.67593500,0.50750490,8.39689900,0.00790477
-11.77491578,-2.21456700,0.53826270,8.44303500,0.00790477
-11.69491578,-1.73782000,0.53826270,8.44303500,0.00790477
-11.61491578,-1.26107300,0.50750490,8.39689900,0.00790477
-11.53491577,-0.83046260,0.43061020,8.30462600,0.00787402
-11.45491577,-0.44598910,0.30757870,8.16621500,0.00784326
-11.37491577,-0.12303150,0.12303150,7.96628900,0.00784326
-11.29491577,0.10765260,-0.13841040,7.70484700,0.00784326
-11.21491577,0.26144190,-0.49212600,7.39726800,0.00784326
-11.13491577,0.33833660,-0.93811510,7.04355200,0.00787402
-11.05491577,0.33833660,-1.43024100,6.61294300,0.00790477
-10.97491577,0.30757870,-1.96850400,6.16695300,0.00790477
-10.89491577,0.23068400,-2.52214600,5.69020700,0.00790477
-10.81491577,0.16916830,-3.01427100,5.21345900,0.00790477
-10.73491576,0.09227362,-3.44488200,4.76747000,0.00787402
-10.65491576,0.04613681,-3.73708200,4.36761800,0.00784326
-10.57491576,0.01537894,-3.90625000,4.04466000,0.00784326
-10.49491576,0.00000000,-3.90625000,3.81397600,0.00784326
-10.41491576,-0.01537894,-3.73708200,3.66018700,0.00784326
-10.33491576,0.00000000,-3.44488200,3.59867100,0.00787402
-10.25491576,0.00000000,-3.01427100,3.59867100,0.00790477
-10.17491576,0.00000000,-2.52214600,3.64480800,0.00790477
-10.09491576,0.00000000,-1.96850400,3.72170300,0.00790477
-10.01491575,0.00000000,-1.43024100,3.78321800,0.00790477
-9.93491575,0.00000000,-0.93811510,3.84473400,0.00787402
-9.85491575,0.00000000,-0.49212600,3.89087100,0.00784326
-9.77491575,0.00000000,-0.13841040,3.92162900,0.00784326
-9.69491575,0.00000000,0.12303150,3.92162900,0.00784326
-9.61491575,0.00000000,0.30757870,3.89087100,0.00784326
-9.53491575,0.00000000,0.43061020,3.84473400,0.00787402
-9.45491575,0.00000000,0.50750490,3.78321800,0.00790477
-9.37491575,0.00000000,0.53826270,3.72170300,0.00790477
-9.29491574,0.00000000,0.53826270,3.64480800,0.00790477
-9.21491574,0.00000000,0.50750490,3.59867100,0.00790477
-9.13491574,0.00000000,0.43061020,3.59867100,0.00787402
-9.05491574,0.00000000,0.30757870,3.66018700,0.00784326
-8.97491574,0.00000000,0.12303150,3.81397600,0.00784326
-8.89491574,0.00000000,-0.13841040,4.06003900,0.00784326
-8.81491574,0.00000000,-0.49212600,4.41375400,0.00784326
-8.73491574,0.00000000,-0.93811510,4.85974400,0.00787402
-8.65491574,0.00000000,-1.43024100,5.38262700,0.00790477
-8.57491574,0.00000000,-1.96850400,5.92089000,0.00790477
-8.49491573,0.00000000,-2.52214600,6.47453200,0.00790477
-8.41491573,0.00000000,-3.02965000,6.96665800,0.00790477
-8.33491573,0.00000000,-3.44488200,7.38188900,0.00787402
-8.25491573,0.00000000,-3.75246000,7.67408900,0.00784326
-8.17491573,0.00000000,-3.90625000,7.82787800,0.00784326
-8.09491573,0.00000000,-3.89087100,7.82787800,0.00784326
-8.01491573,0.00000000,-3.70632400,7.67408900,0.00784326
-7.93491573,0.00000000,-3.35260800,7.38188900,0.00787402
-7.85491573,0.00000000,-2.86048200,6.96665800,0.00790477
-7.77491572,0.00000000,-2.27608300,6.47453200,0.00790477
-7.69491572,0.00000000,-1.67630400,5.92089000,0.00790477
-7.61491572,0.00000000,-1.09190400,5.38262700,0.00790477
-7.53491572,0.00000000,-0.58439960,4.85974400,0.00787402
-7.45491572,0.00000000,-0.21530510,4.41375400,0.00784326
-7.37491572,0.00000000,-0.03075787,4.06003900,0.00784326
-7.29491572,0.00000000,-0.03075787,3.81397600,0.00784326
-7.21491572,0.00000000,-0.21530510,3.66018700,0.00784326
-7.13491572,0.00000000,-0.58439960,3.59867100,0.00787402
-7.05491572,0.00000000,-1.09190400,3.59867100,0.00790477
-6.97491571,0.00000000,-1.67630400,3.64480800,0.00790477
-6.89491571,0.00000000,-2.27608300,3.72170300,0.00790477
-6.81491571,0.00000000,-2.86048200,3.78321800,0.00790477
-6.73491571,0.00000000,-3.35260800,3.84473400,0.00787402
-6.65491571,0.00000000,-3.70632400,3.89087100,0.00784326
-6.57491571,0.00000000,-3.89087100,3.90625000,0.00784326
-6.49491571,0.00000000,-3.89087100,3.92162900,0.00784326
-6.41491571,0.00000000,-3.70632400,3.93700800,0.00784326
-6.33491571,0.00000000,-3.35260800,3.93700800,0.00787402
-6.25491570,0.00000000,-2.86048200,3.95238700,0.00790477
-6.17491570,0.00000000,-2.27608300,3.95238700,0.00790477
-6.09491570,0.00000000,-1.67630400,3.95238700,0.00790477
-6.01491570,0.00000000,-1.09190400,3.95238700,0.00790477
-5.93491570,0.00000000,-0.58439960,3.93700800,0.00787402
-5.85491570,0.00000000,-0.23068400,3.92162900,0.00784326
-5.77491570,0.00000000,-0.03075787,3.92162900,0.00784326
-5.69491570,0.00000000,-0.01537894,3.92162900,0.00784326
-5.61491570,0.00000000,-0.16916830,3.92162900,0.00784326
-5.53491569,0.00000000,-0.49212600,3.93700800,0.00787402
-5.45491569,0.00000000,-0.92273620,3.95238700,0.00790477
-5.37491569,0.00000000,-1.43024100,3.95238700,0.00790477
-5.29491569,0.00000000,-1.98388300,3.95238700,0.00790477
-5.21491569,0.00000000,-2.52214600,3.93700800,0.00790477
-5.13491569,0.00000000,-3.01427100,3.93700800,0.00787402
-5.05491569,0.00000000,-3.44488200,3.92162900,0.00787402
-4.97491569,0.00000000,-3.78321800,3.92162900,0.00784326
-4.89491569,0.00000000,-4.02928100,3.93700800,0.00781250
-4.81491569,0.00000000,-4.15231300,3.96776600,0.00778174
-4.73491568,0.00000000,-4.18307100,4.02928100,0.00768947
-4.65491568,0.00000000,-4.13693400,4.10617600,0.00756644
-4.57491568,0.00000000,-4.01390200,4.18307100,0.00744341
-4.49491568,0.00000000,-3.89087100,4.25996500,0.00728962
-4.41491568,0.00000000,-3.76783900,4.29072300,0.00719734
-4.33491568,0.00000000,-3.69094500,4.29072300,0.00719734
-4.25491568,0.00000000,-3.70632400,4.21382900,0.00732037
-4.17491568,0.00000000,-3.82935500,4.04466000,0.00762795
-4.09491568,0.00000000,-4.04466000,3.76783900,0.00812008
-4.01491567,0.00000000,-4.36761800,3.39874500,0.00882751
-3.93491567,0.00000000,-4.76747000,2.92199800,0.00971949
-3.85491567,0.00000000,-5.21345900,2.35297700,0.01076526
-3.77491567,0.00000000,-5.69020700,1.73782000,0.01184178
-3.69491567,0.00000000,-6.16695300,1.12266200,0.01294907
-3.61491567,0.00000000,-6.61294300,0.58439960,0.01393332
-3.53491567,0.00000000,-7.04355200,0.15378940,0.01476378
-3.45491567,0.00000000,-7.39726800,-0.07689468,0.01534818
-3.37491567,0.00000000,-7.70484700,-0.09227362,0.01565576
-3.29491566,0.00000000,-7.96628900,0.15378940,0.01565576
-3.21491566,0.00000000,-8.16621500,0.63053640,0.01534818
-3.13491566,0.00000000,-8.30462600,1.32258800,0.01476378
-3.05491566,0.00000000,-8.39689900,2.19918800,0.01393332
-2.97491566,0.00000000,-8.44303500,3.16806100,0.01294907
-2.89491566,0.00000000,-8.44303500,4.19845000,0.01184178
-2.81491566,0.00000000,-8.39689900,5.18270100,0.01073450
-2.73491566,0.00000000,-8.30462600,6.10543700,0.00971949
-2.65491566,-0.01537894,-8.16621500,6.92052100,0.00879675
-2.57491566,0.00000000,-7.96628900,7.56643700,0.00812008
-2.49491565,0.01537894,-7.70484700,8.07394100,0.00762795
-2.41491565,0.04613681,-7.39726800,8.42765700,0.00741265
-2.33491565,0.09227362,-7.04355200,8.64296200,0.00738189
-2.25491565,0.16916830,-6.61294300,8.75061400,0.00753568
-2.17491565,0.23068400,-6.16695300,8.75061400,0.00778174
-2.09491565,0.30757870,-5.69020700,8.68909800,0.00802781
-2.01491565,0.35371550,-5.21345900,8.56606700,0.00827387
-1.93491565,0.35371550,-4.76747000,8.41227800,0.00836614
-1.85491565,0.27682080,-4.36761800,8.22773100,0.00830463
-1.77491564,0.12303150,-4.04466000,7.98166800,0.00805856
-1.69491564,-0.15378940,-3.82935500,7.68946800,0.00756644
-1.61491564,-0.53826270,-3.70632400,7.30499500,0.00688976
-1.53491564,-1.01501000,-3.69094500,6.84362600,0.00602854
-1.45491564,-1.59940900,-3.76783900,6.28998500,0.00504429
-1.37491564,-2.21456700,-3.89087100,5.69020700,0.00396777
-1.29491564,-2.82972400,-4.01390200,5.07504900,0.00286048
-1.21491564,-3.36798700,-4.13693400,4.64443900,0.00184547
-1.13491564,-3.78321800,-4.18307100,4.47527100,0.00098425
-1.05491563,-4.01390200,-4.15231300,4.41375400,0.00033834
-0.97491563,-4.01390200,-4.02928100,4.19845000,0.00003076
-0.89491563,-3.76783900,-3.78321800,3.49101900,0.00006152
-0.81491563,-3.26033400,-3.44488200,2.01464100,0.00046137
-0.73491563,-2.52214600,-3.01427100,-0.33833660,0.00116880
-0.65491563,-1.58403000,-2.52214600,-3.44488200,0.00218381
-0.57491563,-0.53826270,-1.98388300,-6.84362600,0.00335261
-0.49491563,0.53826270,-1.43024100,-9.81176100,0.00455217
-0.41491563,1.58403000,-0.92273620,-11.18049000,0.00572097
-0.33491563,2.49138800,-0.49212600,-9.73486600,0.00670522
-0.25491562,3.21419800,-0.16916830,-4.52140800,0.00741265
-0.17491562,3.73708200,-0.01537894,5.15194400,0.00778174
-0.09491562,4.06003900,-0.03075787,19.57738000,0.00778174
-0.01491562,4.18307100,-0.23068400,38.58575000,0.00741265
0.06508438,4.16769200,-0.58439960,61.57726000,0.00670522
0.14508438,4.01390200,-1.09190400,87.53690000,0.00572097
0.22508438,3.76783900,-1.67630400,115.23440000,0.00455217
0.30508438,3.42950300,-2.27608300,143.27020000,0.00335261
0.38508438,2.90661900,-2.86048200,170.33710000,0.00218381
0.46508439,2.16843000,-3.35260800,195.26640000,0.00116880
0.54508439,1.27645200,-3.70632400,217.18130000,0.00046137
0.62508439,0.38447340,-3.89087100,235.48230000,0.00006152
0.70508439,-0.32295760,-3.89087100,249.93850000,0.00003076
0.78508439,-0.72281000,-3.70632400,260.59610000,0.00033834
0.86508439,-0.72281000,-3.35260800,267.74730000,0.00098425
0.94508439,-0.38447340,-2.86048200,271.77660000,0.00184547
1.02508439,0.07689468,-2.27608300,273.08380000,0.00286048
1.10508439,0.33833660,-1.67630400,272.00720000,0.00396777
1.18508439,-0.32295760,-1.09190400,268.70080000,0.00501353
1.26508440,-2.53752400,-0.61515740,263.22590000,0.00596703
1.34508440,-6.52066900,-0.27682080,255.47490000,0.00679749
1.42508440,-12.24163000,-0.06151574,245.30940000,0.00750492
1.50508440,-19.45435000,0.03075787,232.57570000,0.00818159
1.58508440,-27.75898000,0.04613681,217.24290000,0.00882751
1.66508440,-36.74028000,-0.01537894,199.40330000,0.00950418
1.74508440,-46.09067000,-0.10765260,179.37990000,0.01021161
1.82508440,-55.74864000,-0.24606300,157.66490000,0.01088829
1.90508440,-65.92950000,-0.46136810,134.99630000,0.01141117
1.98508441,-77.41756000,-0.87659940,112.18930000,0.01150344
2.06508441,-91.10481000,-1.58403000,90.12056000,0.01094980
2.14508441,-107.43720000,-2.52214600,69.58968000,0.00984252
2.22508441,-126.63020000,-3.49101900,51.30413000,0.00848917
2.30508441,-148.57590000,-4.27534400,35.69451000,0.00728962
2.38508441,-172.89000000,-4.69057600,22.91462000,0.00658219
2.46508441,-198.91120000,-4.62906000,12.87217000,0.00658219
2.54508441,-225.90120000,-4.13693400,5.24421700,0.00722810
2.62508441,-253.06040000,-3.47564000,-0.49212600,0.00805856
2.70508442,-279.77360000,-3.09116600,-5.01353300,0.00827387
2.78508442,-305.77940000,-3.82935500,-8.91978400,0.00642840
2.86508442,-330.95470000,-6.52066900,-12.47232000,0.00104577
2.94508442,-355.00740000,-11.53420000,-15.70189000,-0.00858145
3.02508442,-377.62980000,-18.96223000,-18.47010000,-0.02269931
3.10508442,-398.52980000,-28.62020000,-20.53088000,-0.04106176
3.18508442,-417.43050000,-40.13902000,-21.63816000,-0.06305365
3.26508442,-434.10120000,-52.99581000,-21.59203000,-0.08775222
3.34508442,-448.35750000,-66.72921000,-20.39247000,-0.11426550
3.42508442,-460.10700000,-81.01624000,-18.14714000,-0.14194760
3.50508443,-469.38050000,-95.82615000,-15.30204000,-0.17046010
3.58508443,-476.43950000,-111.58960000,-12.30315000,-0.20023380
3.66508443,-481.56060000,-128.92160000,-9.44266700,-0.23191440
3.74508443,-484.85170000,-148.08380000,-6.92052100,-0.26590180
3.82508443,-486.34350000,-169.18370000,-4.81360700,-0.30241140
3.90508443,-485.92820000,-192.11370000,-3.13730300,-0.34144320
3.98508443,-483.54450000,-216.53540000,-1.84547200,-0.38256640
4.06508443,-479.02310000,-241.95680000,-0.83046260,-0.42510460
4.14508443,-472.33330000,-267.70110000,0.00000000,-0.46804260
4.22508444,-463.45960000,-293.10710000,0.73818890,-0.51011930
4.30508444,-452.49440000,-317.57500000,1.43024100,-0.55001230
4.38508444,-439.74530000,-340.75110000,2.06077700,-0.58664490
4.46508444,-425.70430000,-362.40460000,2.66055600,-0.61894070
4.54508444,-410.90980000,-382.24350000,3.21419800,-0.64591530
4.62508444,-395.83840000,-399.94460000,3.70632400,-0.66670770
4.70508444,-380.85930000,-415.29280000,4.10617600,-0.68088700
4.78508444,-366.17250000,-428.11880000,4.41375400,-0.68820740
4.86508444,-351.80850000,-438.28430000,4.58292300,-0.68888410
4.94508445,-337.65990000,-445.75850000,4.62906000,-0.68340920
5.02508445,-323.46510000,-450.54130000,4.56754400,-0.67255170
5.10508445,-308.73210000,-452.74050000,4.42913300,-0.65717270
5.18508445,-293.12250000,-452.52520000,4.27534400,-0.63831820
5.26508445,-276.77470000,-450.15680000,4.12155500,-0.61697220
5.34508445,-260.05780000,-445.72770000,4.01390200,-0.59387300
5.42508445,-243.44860000,-439.33010000,3.93700800,-0.56954350
5.50508445,-227.46980000,-430.94850000,3.90625000,-0.54419900
5.58508445,-212.53690000,-420.59850000,3.90625000,-0.51793180
5.66508445,-198.88040000,-408.28000000,3.92162900,-0.49068040
5.74508446,-186.48500000,-394.06990000,3.93700800,-0.46235240
5.82508446,-175.10460000,-378.09110000,3.95238700,-0.43294780
5.90508446,-164.03170000,-360.51300000,3.95238700,-0.40240530
5.98508446,-152.65130000,-341.68920000,3.95238700,-0.37103220
6.06508446,-140.77880000,-322.21950000,3.93700800,-0.33959770
6.14508446,-128.47560000,-302.68820000,3.93700800,-0.30899360
6.22508446,-116.01870000,-283.71060000,3.92162900,-0.28017350
6.30508446,-103.73090000,-265.71730000,3.90625000,-0.25399850
6.38508446,-91.98141000,-248.98500000,3.89087100,-0.23093010
6.46508447,-81.01624000,-233.55990000,3.84473400,-0.21115280
6.54508447,-71.00455000,-219.30360000,3.78321800,-0.19438980
6.62508447,-61.90022000,-205.87780000,3.72170300,-0.18002580
6.70508447,-53.38029000,-192.71340000,3.64480800,-0.16692300
6.78508447,-45.09104000,-179.34920000,3.59867100,-0.15400470
6.86508447,-37.10937000,-165.83110000,3.59867100,-0.14108640
6.94508447,-29.55832000,-152.40530000,3.66018700,-0.12816810
7.02508447,-22.69931000,-139.48690000,3.81397600,-0.11571110
7.10508447,-16.77842000,-127.52210000,4.06003900,-0.10423840
7.18508448,-12.01095000,-116.86450000,4.41375400,-0.09424213
7.26508448,-8.47379300,-107.74480000,4.85974400,-0.08602978
7.34508448,-6.15157400,-100.13220000,5.38262700,-0.07972441
7.42508448,-4.85974400,-93.79613000,5.92089000,-0.07511073
7.50508448,-4.24458600,-88.12131000,6.47453200,-0.07141978
7.58508448,-3.90625000,-82.52337000,6.96665800,-0.06788263
7.66508448,-3.73708200,-76.81779000,7.38188900,-0.06428396
7.74508448,-3.67556500,-71.06606000,7.67408900,-0.06053150
7.82508448,-3.78321800,-65.43737000,7.82787800,-0.05674828
7.90508448,-4.13693400,-60.20853000,7.82787800,-0.05314961
7.98508449,-4.84436500,-55.65637000,7.67408900,-0.04995079
8.06508449,-5.96702700,-51.93467000,7.38188900,-0.04733637
8.14508449,-7.52030000,-49.08956000,6.96665800,-0.04542938
8.22508449,-9.44266700,-47.01340000,6.47453200,-0.04410679
8.30508449,-11.56496000,-45.29097000,5.92089000,-0.04315330
8.38508449,-13.65650000,-43.52239000,5.38262700,-0.04226132
8.46508449,-15.65576000,-41.49237000,4.85974400,-0.04133858
8.54508449,-17.45509000,-39.17015000,4.41375400,-0.04044661
8.62508449,-18.96223000,-36.61725000,4.06003900,-0.03958539
8.70508450,-20.17716000,-33.98745000,3.81397600,-0.03890871
8.78508450,-21.08452000,-31.41917000,3.66018700,-0.03844734
8.86508450,-21.68430000,-29.06619000,3.59867100,-0.03829355
8.94508450,-22.05339000,-26.99003000,3.59867100,-0.03841658
9.02508450,-22.23794000,-25.14456000,3.64480800,-0.03878568
9.10508450,-22.31484000,-23.36060000,3.72170300,-0.03918553
9.18508450,-22.36097000,-21.40748000,3.78321800,-0.03949311
9.26508450,-22.48400000,-19.14677000,3.84473400,-0.03961614
9.34508450,-22.74545000,-16.50160000,3.89087100,-0.03958539
9.42508451,-23.22219000,-13.44119000,3.90625000,-0.03937008
9.50508451,-23.91425000,-9.99630800,3.92162900,-0.03906250
9.58508451,-24.80622000,-6.24384800,3.93700800,-0.03869341
9.66508451,-25.86737000,-2.27608300,3.93700800,-0.03829355
9.74508451,-27.03617000,1.79933500,3.95238700,-0.03789370
9.82508451,-28.20497000,5.84399600,3.95238700,-0.03746309
9.90508451,-29.29687000,9.79638200,3.95238700,-0.03690945
9.98508451,-30.20423000,13.56422000,3.95238700,-0.03617126
10.06508451,-30.88090000,17.00910000,3.93700800,-0.03515625
10.14508451,-31.29613000,20.02337000,3.92162900,-0.03386442
10.22508452,-31.41917000,22.51476000,3.92162900,-0.03226501
10.30508452,-31.28075000,24.40637000,3.92162900,-0.03041954
10.38508452,-30.89628000,25.66744000,3.92162900,-0.02832800
10.46508452,-30.32726000,26.34412000,3.93700800,-0.02602116
10.54508452,-29.57369000,26.46715000,3.95238700,-0.02359129
10.62508452,-28.66634000,26.12881000,3.95238700,-0.02106914
10.70508452,-27.57443000,25.45214000,3.95238700,-0.01845472
10.78508452,-26.26722000,24.51402000,3.95238700,-0.01584031
10.86508452,-24.68319000,23.34522000,3.93700800,-0.01328740
10.94508453,-22.83772000,21.99188000,3.92162900,-0.01088829
11.02508453,-20.74619000,20.45399000,3.92162900,-0.00876599
11.10508453,-18.42397000,18.73154000,3.92162900,-0.00701280
11.18508453,-15.90182000,16.83994000,3.92162900,-0.00569021
11.26508453,-13.22589000,14.77916000,3.93700800,-0.00476747
11.34508453,-10.45768000,12.56459000,3.95238700,-0.00427534
11.42508453,-7.62795300,10.21161000,3.95238700,-0.00402928
11.50508453,-4.76747000,7.76636300,3.95238700,-0.00387549
11.58508453,-1.87623000,5.22883800,3.95238700,-0.00362943
11.66508453,0.99963080,2.61441900,3.93700800,-0.00310655
11.74508454,3.82935500,-0.01537894,3.92162900,-0.00218381
