Time,Channel A,Channel B,Channel C,Channel D
(ns),(mV),(mV),(mV),(V)

-15.21290383,0.01537894,-0.03075787,4.02928100,0.00759720
-15.13290382,0.09227362,-0.23068400,4.19845000,0.00698204
-15.05290382,0.18454720,-0.58439960,4.27534400,0.00621309
-14.97290382,0.32295760,-1.09190400,4.29072300,0.00535187
-14.89290382,0.47674700,-1.67630400,4.25996500,0.00442913
-14.81290382,0.61515740,-2.27608300,4.18307100,0.00347564
-14.73290382,0.69205210,-2.86048200,4.10617600,0.00255290
-14.65290382,0.67667320,-3.35260800,4.02928100,0.00166093
-14.57290382,0.53826270,-3.70632400,3.96776600,0.00092274
-14.49290382,0.23068400,-3.89087100,3.93700800,0.00027682
-14.41290381,-0.27682080,-3.89087100,3.92162900,-0.00024606
-14.33290381,-0.96887300,-3.70632400,3.92162900,-0.00061516
-14.25290381,-1.84547200,-3.35260800,3.93700800,-0.00086122
-14.17290381,-2.86048200,-2.86048200,3.93700800,-0.00101501
-14.09290381,-3.95238700,-2.27608300,3.95238700,-0.00107653
-14.01290381,-5.04429100,-1.67630400,3.95238700,-0.00107653
-13.93290381,-6.04392200,-1.09190400,3.95238700,-0.00101501
-13.85290381,-6.88976300,-0.58439960,3.93700800,-0.00086122
-13.77290381,-7.48954200,-0.23068400,3.92162900,-0.00061516
-13.69290380,-7.79712100,-0.03075787,3.92162900,-0.00024606
-13.61290380,-7.79712100,-0.01537894,3.92162900,0.00027682
-13.53290380,-7.48954200,-0.16916830,3.92162900,0.00092274
-13.45290380,-6.88976300,-0.49212600,3.93700800,0.00166093
-13.37290380,-6.04392200,-0.92273620,3.95238700,0.00255290
-13.29290380,-5.04429100,-1.43024100,3.95238700,0.00347564
-13.21290380,-3.95238700,-1.98388300,3.95238700,0.00442913
-13.13290380,-2.86048200,-2.50676700,3.95238700,0.00535187
-13.05290380,-1.84547200,-3.01427100,3.93700800,0.00621309
-12.97290380,-0.96887300,-3.44488200,3.92162900,0.00698204
-12.89290379,-0.27682080,-3.78321800,3.92162900,0.00759720
-12.81290379,0.23068400,-4.02928100,3.92162900,0.00805856
-12.73290379,0.53826270,-4.19845000,3.92162900,0.00836614
-12.65290379,0.67667320,-4.27534400,3.93700800,0.00855069
-12.57290379,0.69205210,-4.29072300,3.95238700,0.00858145
-12.49290379,0.61515740,-4.25996500,3.95238700,0.00851993
-12.41290379,0.47674700,-4.18307100,3.95238700,0.00836614
-12.33290379,0.32295760,-4.10617600,3.95238700,0.00821235
-12.25290379,0.18454720,-4.02928100,3.93700800,0.00805856
-12.17290378,0.07689468,-3.96776600,3.92162900,0.00793553
-12.09290378,0.01537894,-3.92162900,3.92162900,0.00787402
-12.01290378,0.00000000,-3.92162900,3.92162900,0.00784326
-11.93290378,0.03075787,-3.96776600,3.92162900,0.00784326
-11.85290378,0.07689468,-4.02928100,3.93700800,0.00787402
-11.77290378,0.15378940,-4.10617600,3.95238700,0.00787402
-11.69290378,0.23068400,-4.18307100,3.95238700,0.00790477
-11.61290378,0.30757870,-4.25996500,3.95238700,0.00790477
-11.53290378,0.35371550,-4.29072300,3.95238700,0.00787402
-11.45290377,0.33833660,-4.27534400,3.93700800,0.00787402
-11.37290377,0.27682080,-4.18307100,3.92162900,0.00784326
-11.29290377,0.10765260,-4.02928100,3.92162900,0.00784326
-11.21290377,-0.13841040,-3.79859700,3.92162900,0.00787402
-11.13290377,-0.49212600,-3.49101900,3.92162900,0.00793553
-11.05290377,-0.92273620,-3.10654500,3.93700800,0.00805856
-10.97290377,-1.43024100,-2.67593500,3.95238700,0.00821235
-10.89290377,-1.96850400,-2.21456700,3.95238700,0.00836614
-10.81290377,-2.52214600,-1.73782000,3.95238700,0.00851993
-10.73290377,-3.02965000,-1.26107300,3.95238700,0.00858145
-10.65290376,-3.44488200,-0.83046260,3.93700800,0.00855069
-10.57290376,-3.75246000,-0.44598910,3.92162900,0.00836614
-10.49290376,-3.90625000,-0.12303150,3.92162900,0.00805856
-10.41290376,-3.89087100,0.10765260,3.92162900,0.00759720
-10.33290376,-3.70632400,0.26144190,3.92162900,0.00698204
-10.25290376,-3.35260800,0.33833660,3.93700800,0.00621309
-10.17290376,-2.86048200,0.33833660,3.95238700,0.00535187
-10.09290376,-2.27608300,0.30757870,3.95238700,0.00442913
-10.01290376,-1.67630400,0.23068400,3.95238700,0.00347564
-9.93290375,-1.07652500,0.15378940,3.95238700,0.00255290
-9.85290375,-0.58439960,0.09227362,3.93700800,0.00166093
-9.77290375,-0.21530510,0.03075787,3.92162900,0.00092274
-9.69290375,-0.01537894,0.00000000,3.92162900,0.00027682
-9.61290375,-0.03075787,0.00000000,3.92162900,-0.00024606
-9.53290375,-0.26144190,0.03075787,3.92162900,-0.00061516
-9.45290375,-0.67667320,0.09227362,3.93700800,-0.00086122
-9.37290375,-1.24569400,0.15378940,3.95238700,-0.00101501
-9.29290375,-1.90698800,0.23068400,3.95238700,-0.00107653
-9.21290374,-2.58366100,0.30757870,3.95238700,-0.00107653
-9.13290374,-3.21419800,0.33833660,3.95238700,-0.00101501
-9.05290374,-3.69094500,0.32295760,3.93700800,-0.00086122
-8.97290374,-3.98314500,0.24606300,3.93700800,-0.00061516
-8.89290374,-4.01390200,0.10765260,3.92162900,-0.00024606
-8.81290374,-3.76783900,-0.12303150,3.90625000,0.00027682
-8.73290374,-3.22957700,-0.39985230,3.89087100,0.00092274
-8.65290374,-2.42987200,-0.73818890,3.84473400,0.00166093
-8.57290374,-1.43024100,-1.10728300,3.78321800,0.00255290
-8.49290374,-0.30757870,-1.50713600,3.72170300,0.00347564
-8.41290373,0.84584150,-1.90698800,3.64480800,0.00442913
-8.33290373,1.93774600,-2.33759800,3.59867100,0.00535187
-8.25290373,2.84510300,-2.76820900,3.59867100,0.00621309
-8.17290373,3.52177600,-3.21419800,3.66018700,0.00698204
-8.09290373,3.87549200,-3.67556500,3.81397600,0.00759720
-8.01290373,3.89087100,-4.16769200,4.06003900,0.00805856
-7.93290373,3.56791300,-4.67519700,4.41375400,0.00836614
-7.85290373,2.95275600,-5.19808000,4.85974400,0.00855069
-7.77290373,2.09153500,-5.72096400,5.38262700,0.00858145
-7.69290372,1.09190400,-6.22846900,5.92089000,0.00851993
-7.61290372,0.00000000,-6.70521600,6.47453200,0.00836614
-7.53290372,-1.07652500,-7.12044700,6.96665800,0.00821235
-7.45290372,-2.09153500,-7.45878400,7.38188900,0.00805856
-7.37290372,-2.95275600,-7.70484700,7.67408900,0.00793553
-7.29290372,-3.64480800,-7.82787800,7.82787800,0.00787402
-7.21290372,-4.15231300,-7.82787800,7.82787800,0.00784326
-7.13290372,-4.47527100,-7.70484700,7.67408900,0.00784326
-7.05290372,-4.61368100,-7.45878400,7.38188900,0.00787402
-6.97290372,-4.64443900,-7.12044700,6.96665800,0.00787402
-6.89290371,-4.56754400,-6.70521600,6.47453200,0.00790477
-6.81290371,-4.42913300,-6.22846900,5.92089000,0.00790477
-6.73290371,-4.27534400,-5.72096400,5.38262700,0.00790477
-6.65290371,-4.12155500,-5.19808000,4.85974400,0.00787402
-6.57290371,-3.99852300,-4.67519700,4.41375400,0.00784326
-6.49290371,-3.93700800,-4.16769200,4.06003900,0.00784326
-6.41290371,-3.92162900,-3.67556500,3.81397600,0.00784326
-6.33290371,-3.95238700,-3.21419800,3.66018700,0.00784326
-6.25290371,-4.01390200,-2.76820900,3.59867100,0.00787402
-6.17290370,-4.10617600,-2.33759800,3.59867100,0.00790477
-6.09290370,-4.18307100,-1.90698800,3.64480800,0.00790477
-6.01290370,-4.25996500,-1.50713600,3.72170300,0.00790477
-5.93290370,-4.29072300,-1.10728300,3.78321800,0.00787402
-5.85290370,-4.27534400,-0.73818890,3.84473400,0.00787402
-5.77290370,-4.18307100,-0.41523130,3.89087100,0.00784326
-5.69290370,-4.02928100,-0.12303150,3.90625000,0.00784326
-5.61290370,-3.79859700,0.10765260,3.92162900,0.00787402
-5.53290370,-3.49101900,0.29219980,3.93700800,0.00793553
-5.45290369,-3.10654500,0.43061020,3.93700800,0.00805856
-5.37290369,-2.67593500,0.50750490,3.95238700,0.00821235
-5.29290369,-2.21456700,0.53826270,3.95238700,0.00836614
-5.21290369,-1.73782000,0.53826270,3.95238700,0.00851993
-5.13290369,-1.26107300,0.50750490,3.95238700,0.00858145
-5.05290369,-0.83046260,0.43061020,3.93700800,0.00855069
-4.97290369,-0.44598910,0.30757870,3.92162900,0.00839690
-4.89290369,-0.12303150,0.12303150,3.92162900,0.00805856
-4.81290369,0.10765260,-0.13841040,3.92162900,0.00756644
-4.73290369,0.26144190,-0.46136810,3.92162900,0.00688976
-4.65290368,0.33833660,-0.83046260,3.93700800,0.00602854
-4.57290368,0.33833660,-1.27645200,3.95238700,0.00501353
-4.49290368,0.30757870,-1.73782000,3.95238700,0.00396777
-4.41290368,0.23068400,-2.21456700,3.95238700,0.00286048
-4.33290368,0.16916830,-2.67593500,3.95238700,0.00184547
-4.25290368,0.09227362,-3.10654500,3.93700800,0.00098425
-4.17290368,0.04613681,-3.47564000,3.92162900,0.00036909
-4.09290368,0.01537894,-3.78321800,3.92162900,0.00003076
-4.01290368,0.00000000,-4.04466000,3.92162900,0.00003076
-3.93290367,-0.01537894,-4.22920700,3.92162900,0.00036909
-3.85290367,0.00000000,-4.36761800,3.93700800,0.00098425
-3.77290367,0.00000000,-4.44451300,3.95238700,0.00184547
-3.69290367,0.00000000,-4.49065000,3.95238700,0.00286048
-3.61290367,0.00000000,-4.49065000,3.95238700,0.00396777
-3.53290367,0.00000000,-4.44451300,3.95238700,0.00501353
-3.45290367,0.00000000,-4.36761800,3.93700800,0.00602854
-3.37290367,0.00000000,-4.22920700,3.92162900,0.00688976
-3.29290367,0.00000000,-4.04466000,3.92162900,0.00756644
-3.21290366,0.00000000,-3.78321800,3.92162900,0.00805856
-3.13290366,0.00000000,-3.47564000,3.92162900,0.00839690
-3.05290366,0.00000000,-3.10654500,3.93700800,0.00855069
-2.97290366,0.00000000,-2.67593500,3.95238700,0.00858145
-2.89290366,0.00000000,-2.21456700,3.95238700,0.00851993
-2.81290366,0.00000000,-1.73782000,3.95238700,0.00836614
-2.73290366,0.00000000,-1.26107300,3.95238700,0.00821235
-2.65290366,0.00000000,-0.83046260,3.93700800,0.00805856
-2.57290366,0.00000000,-0.44598910,3.93700800,0.00793553
-2.49290366,0.00000000,-0.12303150,3.92162900,0.00784326
-2.41290365,0.00000000,0.10765260,3.90625000,0.00784326
-2.33290365,0.00000000,0.26144190,3.89087100,0.00793553
-2.25290365,0.00000000,0.33833660,3.84473400,0.00805856
-2.17290365,0.00000000,0.33833660,3.78321800,0.00821235
-2.09290365,0.00000000,0.30757870,3.72170300,0.00836614
-2.01290365,0.00000000,0.23068400,3.64480800,0.00851993
-1.93290365,0.00000000,0.16916830,3.61405000,0.00858145
-1.85290365,0.00000000,0.09227362,3.64480800,0.00855069
-1.77290365,0.00000000,0.04613681,3.73708200,0.00839690
-1.69290364,0.00000000,0.01537894,3.86011300,0.00805856
-1.61290364,0.00000000,0.00000000,3.98314500,0.00756644
-1.53290364,0.00000000,-0.01537894,4.07541800,0.00688976
-1.45290364,0.00000000,0.00000000,4.10617600,0.00602854
-1.37290364,0.00000000,0.00000000,4.07541800,0.00501353
-1.29290364,0.00000000,0.00000000,4.02928100,0.00396777
-1.21290364,0.00000000,0.00000000,4.02928100,0.00286048
-1.13290364,0.00000000,0.00000000,4.33686000,0.00184547
-1.05290364,-0.01537894,0.00000000,5.09042800,0.00098425
-0.97290363,-0.01537894,-0.01537894,6.18233200,0.00036909
-0.89290363,-0.01537894,0.00000000,7.35113100,0.00003076
-0.81290363,0.01537894,0.01537894,8.24311000,0.00003076
-0.73290363,0.09227362,0.04613681,8.55068800,0.00036909
-0.65290363,0.18454720,0.09227362,8.13545700,0.00098425
-0.57290363,0.32295760,0.16916830,7.04355200,0.00184547
-0.49290363,0.47674700,0.23068400,5.69020700,0.00286048
-0.41290363,0.61515740,0.30757870,4.78284900,0.00396777
-0.33290363,0.67667320,0.33833660,5.35187000,0.00501353
-0.25290363,0.63053640,0.33833660,8.59682500,0.00602854
-0.17290362,0.44598910,0.26144190,15.65576000,0.00688976
-0.09290362,0.16916830,0.10765260,27.45140000,0.00756644
-0.01290362,-0.18454720,-0.12303150,44.50664000,0.00805856
0.06709638,-0.58439960,-0.44598910,66.83685000,0.00839690
0.14709638,-0.99963080,-0.83046260,93.90378000,0.00855069
0.22709638,-1.39948300,-1.26107300,124.53860000,0.00858145
0.30709638,-1.81471400,-1.73782000,157.04970000,0.00851993
0.38709638,-2.29146100,-2.21456700,189.42240000,0.00836614
0.46709638,-3.02965000,-2.67593500,219.42670000,0.00821235
0.54709639,-4.16769200,-3.10654500,244.95570000,0.00805856
0.62709639,-5.59793300,-3.49101900,264.17940000,0.00793553
0.70709639,-7.12044700,-3.79859700,275.79050000,0.00784326
0.78709639,-8.48917200,-4.02928100,279.09700000,0.00784326
0.86709639,-9.45804600,-4.18307100,274.14490000,0.00793553
0.94709639,-9.88865600,-4.27534400,261.64180000,0.00805856
1.02709639,-9.82714000,-4.29072300,242.86420000,0.00821235
1.10709639,-9.55032000,-4.25996500,219.51890000,0.00836614
1.18709639,-9.58107800,-4.18307100,193.48240000,0.00851993
1.26709639,-10.87291000,-4.12155500,166.60000000,0.00855069
1.34709640,-14.39468000,-4.10617600,140.53270000,0.00839690
1.42709640,-20.62315000,-4.07541800,116.58770000,0.00815084
1.50709640,-29.71210000,-3.99852300,95.56471000,0.00793553
1.58709640,-41.52312000,-3.81397600,77.84818000,0.00781250
1.66709640,-55.62561000,-3.44488200,63.36122000,0.00790477
1.74709640,-71.46591000,-2.89124000,51.68861000,0.00830463
1.82709640,-88.44426000,-2.15305100,42.21518000,0.00891978
1.90709640,-106.11470000,-1.35334600,34.27965000,0.00962722
1.98709640,-124.26180000,-0.59977850,27.23610000,0.01018086
2.06709641,-143.17790000,-0.26144190,20.65391000,0.00993479
2.14709641,-163.32430000,-0.59977850,14.30241000,0.00842766
2.22709641,-184.83940000,-1.59940900,8.21235200,0.00569021
2.30709641,-207.73870000,-3.07578700,2.56828200,0.00203002
2.38709641,-231.83750000,-4.78284900,-2.35297700,-0.00209154
2.46709641,-256.81290000,-6.39763700,-6.27460600,-0.00615158
2.54709641,-282.17270000,-7.75098400,-9.01205700,-0.00981176
2.62709641,-307.34800000,-8.81213000,-10.50381000,-0.01301058
2.70709641,-331.75440000,-9.81176100,-10.87291000,-0.01611713
2.78709642,-354.93050000,-11.27276000,-10.54995000,-0.01999262
2.86709642,-376.69170000,-14.19476000,-9.96555000,-0.02626722
2.94709642,-396.94570000,-19.60814000,-9.30425600,-0.03663263
3.02709642,-415.44660000,-28.08194000,-8.70447700,-0.05219611
3.10709642,-431.91740000,-39.90834000,-8.13545700,-0.07348056
3.18709642,-446.09680000,-55.01045000,-7.53567900,-0.10048600
3.26709642,-457.75400000,-72.98843000,-6.82824800,-0.13262790
3.34709642,-466.73530000,-93.24249000,-5.90551100,-0.16892220
3.42709642,-472.94840000,-115.03440000,-4.73671200,-0.20804630
3.50709642,-476.42410000,-137.67220000,-3.30647100,-0.24864660
3.58709643,-477.31600000,-160.64840000,-1.73782000,-0.28952390
3.66709643,-475.99350000,-183.85520000,-0.18454720,-0.33000120
3.74709643,-472.88690000,-207.36960000,1.26107300,-0.36974040
3.82709643,-468.25780000,-231.08390000,2.50676700,-0.40821850
3.90709643,-462.33690000,-254.87510000,3.52177600,-0.44509720
3.98709643,-455.20110000,-278.51250000,4.25996500,-0.48009960
4.06709643,-446.86580000,-301.75010000,4.72133400,-0.51294900
4.14709643,-437.25390000,-324.24950000,4.95201700,-0.54336860
4.22709643,-426.25800000,-345.64160000,4.98277500,-0.57111220
4.30709644,-413.83180000,-365.57270000,4.85974400,-0.59571850
4.38709644,-399.86770000,-383.68910000,4.65981800,-0.61684920
4.46709644,-384.44260000,-399.89850000,4.42913300,-0.63413510
4.54709644,-367.98720000,-414.07790000,4.21382900,-0.64726870
4.62709644,-350.97810000,-426.04270000,4.06003900,-0.65575780
4.70709644,-333.93820000,-435.54680000,3.95238700,-0.65920280
4.78709644,-317.32900000,-442.39050000,3.90625000,-0.65735730
4.86709644,-301.47330000,-446.45050000,3.90625000,-0.65003690
4.94709644,-286.47880000,-447.63470000,3.92162900,-0.63742620
5.02709645,-272.25330000,-445.98910000,3.93700800,-0.61986350
5.10709645,-258.51990000,-441.65230000,3.95238700,-0.59796380
5.18709645,-244.66350000,-434.83940000,3.95238700,-0.57249630
5.26709645,-230.19190000,-425.96580000,3.95238700,-0.54441430
5.34709645,-215.08980000,-415.46200000,3.93700800,-0.51473300
5.42709645,-199.58780000,-403.72780000,3.92162900,-0.48443650
5.50709645,-184.10120000,-391.04020000,3.92162900,-0.45420150
5.58709645,-169.09140000,-377.58360000,3.92162900,-0.42461250
5.66709645,-154.94280000,-363.45040000,3.92162900,-0.39585380
5.74709645,-141.94760000,-348.67120000,3.93700800,-0.36795650
5.82709646,-130.16730000,-333.16930000,3.95238700,-0.34079720
5.90709646,-119.43280000,-316.92910000,3.95238700,-0.31406860
5.98709646,-109.20580000,-299.82770000,3.95238700,-0.28734000
6.06709646,-98.91731000,-281.91130000,3.95238700,-0.26039620
6.14709646,-88.49040000,-263.61040000,3.93700800,-0.23369830
6.22709646,-78.00196000,-245.44780000,3.92162900,-0.20786170
6.30709646,-67.72884000,-227.97740000,3.92162900,-0.18374750
6.38709646,-57.96321000,-211.67570000,3.92162900,-0.16212480
6.46709646,-48.99729000,-196.88110000,3.92162900,-0.14354700
6.54709647,-41.04638000,-183.68600000,3.93700800,-0.12826030
6.62709647,-34.18737000,-171.99800000,3.95238700,-0.11608020
6.70709647,-28.34338000,-161.46340000,3.95238700,-0.10645300
6.78709647,-23.16068000,-151.42100000,3.95238700,-0.09824065
6.86709647,-18.27018000,-141.30170000,3.95238700,-0.09036663
6.94709647,-13.65650000,-131.02850000,3.93700800,-0.08246186
7.02709647,-9.38115100,-120.70930000,3.92162900,-0.07443406
7.10709647,-5.58255400,-110.69760000,3.92162900,-0.06656004
7.18709647,-2.44525100,-101.33180000,3.92162900,-0.05914739
7.26709648,-0.12303150,-92.98105000,3.92162900,-0.05265748
7.34709648,1.29183100,-85.86060000,3.93700800,-0.04739789
7.42709648,1.81471400,-80.00122000,3.95238700,-0.04346088
7.50709648,1.55327200,-75.21838000,3.95238700,-0.04081570
7.58709648,0.81508360,-70.97379000,3.95238700,-0.03887795
7.66709648,-0.13841040,-66.74458000,3.95238700,-0.03718627
7.74709648,-1.18417800,-62.34621000,3.93700800,-0.03549459
7.82709648,-2.26070400,-57.79404000,3.93700800,-0.03380290
7.90709648,-3.35260800,-53.22650000,3.92162900,-0.03214198
7.98709648,-4.50602900,-48.82812000,3.90625000,-0.03066560
8.06709649,-5.76710100,-44.84498000,3.89087100,-0.02952756
8.14709649,-7.16658400,-41.41548000,3.84473400,-0.02878937
8.22709649,-8.71985600,-38.61651000,3.78321800,-0.02854331
8.30709649,-10.42692000,-36.37119000,3.72170300,-0.02869710
8.38709649,-12.19550000,-34.38730000,3.64480800,-0.02912771
8.46709649,-13.96407000,-32.34190000,3.59867100,-0.02955832
8.54709649,-15.68651000,-30.08120000,3.59867100,-0.03001969
8.62709649,-17.34744000,-27.57443000,3.66018700,-0.03051181
8.70709649,-18.88533000,-24.91388000,3.81397600,-0.03106545
8.78709650,-20.30020000,-22.16105000,4.06003900,-0.03174213
8.86709650,-21.57665000,-19.46973000,4.41375400,-0.03257259
8.94709650,-22.68393000,-16.94759000,4.85974400,-0.03358760
9.02709650,-23.63743000,-14.65613000,5.38262700,-0.03475640
9.10709650,-24.45251000,-12.57997000,5.92089000,-0.03604823
9.18709650,-25.12918000,-10.59609000,6.47453200,-0.03724778
9.26709650,-25.72896000,-8.55068800,6.96665800,-0.03829355
9.34709650,-26.25184000,-6.35150100,7.38188900,-0.03900098
9.42709650,-26.74397000,-3.95238700,7.67408900,-0.03937008
9.50709651,-27.22072000,-1.36872500,7.82787800,-0.03937008
9.58709651,-27.69746000,1.39948300,7.82787800,-0.03900098
9.66709651,-28.14345000,4.29072300,7.67408900,-0.03829355
9.74709651,-28.57406000,7.22810000,7.38188900,-0.03727854
9.82709651,-28.94316000,10.15010000,6.96665800,-0.03604823
9.90709651,-29.21998000,12.96444000,6.47453200,-0.03460261
9.98709651,-29.35839000,15.62500000,5.92089000,-0.03297244
10.06709651,-29.31225000,18.05487000,5.36724900,-0.03112697
10.14709651,-29.05081000,20.16179000,4.85974400,-0.02912771
10.22709651,-28.57406000,21.86885000,4.39837600,-0.02694390
10.30709652,-27.88201000,23.11454000,4.06003900,-0.02469857
10.38709652,-26.99003000,23.83735000,3.81397600,-0.02236097
10.46709652,-25.95964000,24.03728000,3.70632400,-0.02002338
10.54709652,-24.79084000,23.76046000,3.69094500,-0.01765502
10.62709652,-23.51439000,23.05302000,3.76783900,-0.01531742
10.70709652,-22.13029000,21.97650000,3.89087100,-0.01301058
10.78709652,-20.63853000,20.62315000,4.01390200,-0.01070374
10.86709652,-18.97761000,19.02374000,4.13693400,-0.00833538
10.94709652,-17.11676000,17.19365000,4.18307100,-0.00593627
11.02709653,-15.10212000,15.16363000,4.15231300,-0.00353716
11.10709653,-12.90293000,12.94906000,4.02928100,-0.00116880
11.18709653,-10.59609000,10.54995000,3.78321800,0.00113804
11.26709653,-8.19697300,8.01242500,3.44488200,0.00329109
11.34709653,-5.76710100,5.33649100,3.01427100,0.00532111
11.42709653,-3.33722900,2.55290300,2.52214600,0.00713583
11.50709653,-0.92273620,-0.27682080,1.98388300,0.00876599
11.58709653,1.46099900,-3.13730300,1.43024100,0.01027313
11.66709653,3.82935500,-6.01316400,0.92273620,0.01168799
11.74709653,6.18233200,-8.85826700,0.49212600,0.01297982
11.82709654,8.48917200,-11.67261000,0.16916830,0.01417938
