Time,Channel A,Channel B,Channel C,Channel D
(ns),(mV),(mV),(mV),(V)

-15.33333383,0.00000000,0.12303150,0.03075787,0.00808932
-15.25333382,0.00000000,0.30757870,0.23068400,0.00848917
-15.17333382,0.00000000,0.43061020,0.58439960,0.00873524
-15.09333382,0.00000000,0.50750490,1.09190400,0.00891978
-15.01333382,0.00000000,0.53826270,1.67630400,0.00898130
-14.93333382,0.00000000,0.53826270,2.27608300,0.00898130
-14.85333382,0.00000000,0.50750490,2.86048200,0.00888903
-14.77333382,0.00000000,0.43061020,3.35260800,0.00873524
-14.69333382,-0.01537894,0.30757870,3.70632400,0.00845842
-14.61333382,0.00000000,0.12303150,3.89087100,0.00808932
-14.53333381,0.01537894,-0.13841040,3.89087100,0.00756644
-14.45333381,0.04613681,-0.49212600,3.70632400,0.00695128
-14.37333381,0.09227362,-0.93811510,3.35260800,0.00621309
-14.29333381,0.16916830,-1.43024100,2.86048200,0.00535187
-14.21333381,0.23068400,-1.96850400,2.27608300,0.00442913
-14.13333381,0.30757870,-2.52214600,1.67630400,0.00347564
-14.05333381,0.33833660,-3.01427100,1.09190400,0.00255290
-13.97333381,0.33833660,-3.44488200,0.59977850,0.00166093
-13.89333381,0.26144190,-3.73708200,0.23068400,0.00092274
-13.81333380,0.10765260,-3.90625000,0.03075787,0.00027682
-13.73333380,-0.12303150,-3.90625000,0.00000000,-0.00024606
-13.65333380,-0.44598910,-3.73708200,0.13841040,-0.00061516
-13.57333380,-0.83046260,-3.44488200,0.39985230,-0.00086122
-13.49333380,-1.26107300,-3.01427100,0.75356790,-0.00101501
-13.41333380,-1.73782000,-2.52214600,1.19955700,-0.00107653
-13.33333380,-2.21456700,-1.96850400,1.67630400,-0.00107653
-13.25333380,-2.67593500,-1.43024100,2.16843000,-0.00101501
-13.17333380,-3.10654500,-0.93811510,2.66055600,-0.00086122
-13.09333380,-3.49101900,-0.49212600,3.16806100,-0.00061516
-13.01333379,-3.79859700,-0.13841040,3.66018700,-0.00024606
-12.93333379,-4.02928100,0.12303150,4.18307100,0.00027682
-12.85333379,-4.18307100,0.30757870,4.72133400,0.00098425
-12.77333379,-4.27534400,0.43061020,5.30573300,0.00187623
-12.69333379,-4.29072300,0.50750490,5.89013200,0.00286048
-12.61333379,-4.25996500,0.53826270,6.47453200,0.00393701
-12.53333379,-4.18307100,0.53826270,7.01279500,0.00504429
-12.45333379,-4.10617600,0.50750490,7.47416300,0.00605930
-12.37333379,-4.02928100,0.43061020,7.81250000,0.00688976
-12.29333378,-3.96776600,0.30757870,7.98166800,0.00750492
-12.21333378,-3.92162900,0.12303150,7.95091000,0.00781250
-12.13333378,-3.92162900,-0.13841040,7.67408900,0.00778174
-12.05333378,-3.96776600,-0.46136810,7.18196300,0.00741265
-11.97333378,-4.02928100,-0.83046260,6.44377400,0.00670522
-11.89333378,-4.10617600,-1.27645200,5.53641700,0.00572097
-11.81333378,-4.18307100,-1.73782000,4.49065000,0.00455217
-11.73333378,-4.25996500,-2.21456700,3.41412400,0.00335261
-11.65333378,-4.29072300,-2.67593500,2.35297700,0.00218381
-11.57333377,-4.27534400,-3.10654500,1.43024100,0.00116880
-11.49333377,-4.18307100,-3.49101900,0.67667320,0.00046137
-11.41333377,-4.02928100,-3.79859700,0.16916830,0.00006152
-11.33333377,-3.79859700,-4.02928100,-0.10765260,0.00003076
-11.25333377,-3.49101900,-4.18307100,-0.12303150,0.00033834
-11.17333377,-3.10654500,-4.27534400,0.06151574,0.00098425
-11.09333377,-2.67593500,-4.29072300,0.41523130,0.00184547
-11.01333377,-2.21456700,-4.25996500,0.89197830,0.00286048
-10.93333377,-1.73782000,-4.18307100,1.43024100,0.00396777
-10.85333377,-1.26107300,-4.10617600,2.01464100,0.00504429
-10.77333376,-0.83046260,-4.02928100,2.58366100,0.00602854
-10.69333376,-0.44598910,-3.96776600,3.13730300,0.00688976
-10.61333376,-0.12303150,-3.93700800,3.66018700,0.00756644
-10.53333376,0.10765260,-3.92162900,4.16769200,0.00805856
-10.45333376,0.26144190,-3.92162900,4.65981800,0.00830463
-10.37333376,0.33833660,-3.93700800,5.12118600,0.00836614
-10.29333376,0.33833660,-3.93700800,5.56717500,0.00827387
-10.21333376,0.30757870,-3.95238700,5.99778500,0.00802781
-10.13333376,0.23068400,-3.95238700,6.39763700,0.00778174
-10.05333375,0.16916830,-3.95238700,6.78211100,0.00753568
-9.97333375,0.09227362,-3.93700800,7.13582600,0.00738189
-9.89333375,0.04613681,-3.92162900,7.44340500,0.00741265
-9.81333375,0.01537894,-3.92162900,7.72022600,0.00762795
-9.73333375,0.00000000,-3.92162900,7.95091000,0.00812008
-9.65333375,-0.01537894,-3.92162900,8.15083600,0.00879675
-9.57333375,0.00000000,-3.93700800,8.28924700,0.00971949
-9.49333375,0.00000000,-3.95238700,8.39689900,0.01073450
-9.41333375,0.00000000,-3.95238700,8.44303500,0.01184178
-9.33333374,0.00000000,-3.95238700,8.44303500,0.01294907
-9.25333374,0.00000000,-3.95238700,8.39689900,0.01393332
-9.17333374,0.00000000,-3.93700800,8.30462600,0.01476378
-9.09333374,0.00000000,-3.92162900,8.16621500,0.01534818
-9.01333374,0.00000000,-3.92162900,7.96628900,0.01565576
-8.93333374,0.00000000,-3.92162900,7.70484700,0.01565576
-8.85333374,0.00000000,-3.92162900,7.39726800,0.01534818
-8.77333374,0.00000000,-3.93700800,7.04355200,0.01476378
-8.69333374,0.00000000,-3.95238700,6.61294300,0.01393332
-8.61333374,0.00000000,-3.95238700,6.16695300,0.01294907
-8.53333373,0.00000000,-3.95238700,5.69020700,0.01184178
-8.45333373,0.00000000,-3.95238700,5.21345900,0.01076526
-8.37333373,0.00000000,-3.93700800,4.76747000,0.00971949
-8.29333373,0.00000000,-3.92162900,4.36761800,0.00882751
-8.21333373,0.00000000,-3.92162900,4.04466000,0.00812008
-8.13333373,0.00000000,-3.92162900,3.81397600,0.00762795
-8.05333373,0.00000000,-3.92162900,3.66018700,0.00732037
-7.97333373,0.00000000,-3.93700800,3.59867100,0.00719734
-7.89333373,0.00000000,-3.95238700,3.59867100,0.00719734
-7.81333372,0.00000000,-3.95238700,3.64480800,0.00728962
-7.73333372,0.00000000,-3.95238700,3.72170300,0.00744341
-7.65333372,0.00000000,-3.93700800,3.78321800,0.00756644
-7.57333372,0.00000000,-3.93700800,3.84473400,0.00768947
-7.49333372,0.00000000,-3.92162900,3.89087100,0.00778174
-7.41333372,0.00000000,-3.92162900,3.90625000,0.00781250
-7.33333372,0.00000000,-3.93700800,3.92162900,0.00784326
-7.25333372,0.00000000,-3.96776600,3.93700800,0.00787402
-7.17333372,0.00000000,-4.02928100,3.93700800,0.00787402
-7.09333372,0.00000000,-4.10617600,3.95238700,0.00790477
-7.01333371,0.00000000,-4.18307100,3.95238700,0.00790477
-6.93333371,0.00000000,-4.25996500,3.95238700,0.00790477
-6.85333371,0.00000000,-4.29072300,3.95238700,0.00787402
-6.77333371,0.00000000,-4.27534400,3.93700800,0.00787402
-6.69333371,-0.01537894,-4.18307100,3.92162900,0.00784326
-6.61333371,0.00000000,-4.02928100,3.92162900,0.00784326
-6.53333371,0.01537894,-3.79859700,3.92162900,0.00787402
-6.45333371,0.04613681,-3.49101900,3.92162900,0.00793553
-6.37333371,0.09227362,-3.10654500,3.93700800,0.00805856
-6.29333370,0.16916830,-2.67593500,3.95238700,0.00821235
-6.21333370,0.23068400,-2.21456700,3.95238700,0.00836614
-6.13333370,0.30757870,-1.73782000,3.95238700,0.00851993
-6.05333370,0.35371550,-1.27645200,3.95238700,0.00858145
-5.97333370,0.33833660,-0.83046260,3.93700800,0.00855069
-5.89333370,0.27682080,-0.46136810,3.92162900,0.00839690
-5.81333370,0.10765260,-0.13841040,3.92162900,0.00805856
-5.73333370,-0.13841040,0.12303150,3.92162900,0.00756644
-5.65333370,-0.49212600,0.30757870,3.92162900,0.00688976
-5.57333369,-0.92273620,0.43061020,3.93700800,0.00602854
-5.49333369,-1.43024100,0.50750490,3.95238700,0.00501353
-5.41333369,-1.96850400,0.53826270,3.95238700,0.00396777
-5.33333369,-2.52214600,0.53826270,3.95238700,0.00286048
-5.25333369,-3.01427100,0.50750490,3.95238700,0.00184547
-5.17333369,-3.44488200,0.43061020,3.93700800,0.00098425
-5.09333369,-3.73708200,0.30757870,3.92162900,0.00036909
-5.01333369,-3.90625000,0.12303150,3.92162900,0.00003076
-4.93333369,-3.90625000,-0.13841040,3.92162900,0.00003076
-4.85333369,-3.73708200,-0.49212600,3.92162900,0.00036909
-4.77333368,-3.44488200,-0.93811510,3.93700800,0.00098425
-4.69333368,-3.01427100,-1.43024100,3.95238700,0.00184547
-4.61333368,-2.52214600,-1.96850400,3.95238700,0.00286048
-4.53333368,-1.96850400,-2.52214600,3.95238700,0.00396777
-4.45333368,-1.43024100,-3.01427100,3.95238700,0.00501353
-4.37333368,-0.92273620,-3.44488200,3.93700800,0.00602854
-4.29333368,-0.49212600,-3.73708200,3.93700800,0.00688976
-4.21333368,-0.13841040,-3.90625000,3.92162900,0.00756644
-4.13333368,0.10765260,-3.90625000,3.90625000,0.00805856
-4.05333367,0.27682080,-3.73708200,3.89087100,0.00839690
-3.97333367,0.33833660,-3.44488200,3.84473400,0.00855069
-3.89333367,0.35371550,-3.01427100,3.78321800,0.00858145
-3.81333367,0.30757870,-2.52214600,3.72170300,0.00851993
-3.73333367,0.23068400,-1.96850400,3.64480800,0.00836614
-3.65333367,0.15378940,-1.43024100,3.59867100,0.00821235
-3.57333367,0.09227362,-0.92273620,3.59867100,0.00805856
-3.49333367,0.03075787,-0.49212600,3.66018700,0.00793553
-3.41333367,0.00000000,-0.13841040,3.81397600,0.00787402
-3.33333366,0.00000000,0.10765260,4.06003900,0.00784326
-3.25333366,0.03075787,0.27682080,4.41375400,0.00784326
-3.17333366,0.09227362,0.33833660,4.85974400,0.00787402
-3.09333366,0.15378940,0.35371550,5.38262700,0.00787402
-3.01333366,0.23068400,0.30757870,5.92089000,0.00790477
-2.93333366,0.30757870,0.23068400,6.47453200,0.00790477
-2.85333366,0.35371550,0.16916830,6.96665800,0.00790477
-2.77333366,0.33833660,0.09227362,7.38188900,0.00787402
-2.69333366,0.27682080,0.04613681,7.67408900,0.00784326
-2.61333366,0.10765260,0.01537894,7.82787800,0.00784326
-2.53333365,-0.13841040,0.00000000,7.81250000,0.00784326
-2.45333365,-0.49212600,-0.01537894,7.62795300,0.00784326
-2.37333365,-0.92273620,0.00000000,7.28961600,0.00787402
-2.29333365,-1.43024100,0.00000000,6.79749000,0.00790477
-2.21333365,-1.96850400,0.00000000,6.22846900,0.00790477
-2.13333365,-2.52214600,0.00000000,5.62869100,0.00790477
-2.05333365,-3.01427100,0.00000000,5.02891200,0.00790477
-1.97333365,-3.44488200,0.00000000,4.53678600,0.00787402
-1.89333365,-3.73708200,-0.01537894,4.16769200,0.00784326
-1.81333364,-3.90625000,0.00000000,3.95238700,0.00784326
-1.73333364,-3.90625000,0.01537894,3.92162900,0.00784326
-1.65333364,-3.73708200,0.04613681,4.06003900,0.00784326
-1.57333364,-3.44488200,0.09227362,4.33686000,0.00787402
-1.49333364,-3.01427100,0.16916830,4.70595500,0.00790477
-1.41333364,-2.52214600,0.23068400,5.15194400,0.00790477
-1.33333364,-1.96850400,0.30757870,5.62869100,0.00790477
-1.25333364,-1.43024100,0.33833660,6.19771100,0.00790477
-1.17333364,-0.93811510,0.33833660,6.87438400,0.00787402
-1.09333363,-0.49212600,0.26144190,7.50492100,0.00784326
-1.01333363,-0.13841040,0.10765260,7.85863600,0.00784326
-0.93333363,0.12303150,-0.12303150,7.67408900,0.00784326
-0.85333363,0.30757870,-0.44598910,6.75135300,0.00784326
-0.77333363,0.43061020,-0.83046260,5.05967000,0.00787402
-0.69333363,0.50750490,-1.26107300,2.69131400,0.00790477
-0.61333363,0.53826270,-1.73782000,0.00000000,0.00790477
-0.53333363,0.53826270,-2.21456700,-2.42987200,0.00790477
-0.45333363,0.50750490,-2.67593500,-3.72170300,0.00790477
-0.37333363,0.41523130,-3.10654500,-2.96813500,0.00787402
-0.29333362,0.27682080,-3.47564000,0.50750490,0.00784326
-0.21333362,0.10765260,-3.78321800,7.18196300,0.00784326
-0.13333362,-0.10765260,-4.04466000,17.19365000,0.00784326
-0.05333362,-0.36909450,-4.22920700,30.40416000,0.00784326
0.02666638,-0.64591530,-4.36761800,46.35211000,0.00787402
0.10666638,-0.95349410,-4.44451300,64.33009000,0.00790477
0.18666638,-1.26107300,-4.49065000,83.49224000,0.00790477
0.26666638,-1.59940900,-4.49065000,102.96200000,0.00790477
0.34666638,-2.04539800,-4.45989200,121.92420000,0.00790477
0.42666639,-2.61441900,-4.36761800,139.70230000,0.00787402
0.50666639,-3.22957700,-4.24458600,155.85010000,0.00784326
0.58666639,-3.75246000,-4.04466000,170.10640000,0.00784326
0.66666639,-4.01390200,-3.78321800,182.42490000,0.00784326
0.74666639,-3.87549200,-3.42950300,192.86720000,0.00784326
0.82666639,-3.27571300,-2.99889300,201.58710000,0.00787402
0.90666639,-2.27608300,-2.50676700,208.67680000,0.00790477
0.98666639,-1.10728300,-1.98388300,214.15170000,0.00790477
1.06666639,-0.09227362,-1.43024100,217.88880000,0.00790477
1.14666639,0.06151574,-0.92273620,219.61120000,0.00787402
1.22666640,-1.24569400,-0.50750490,218.91920000,0.00784326
1.30666640,-4.24458600,-0.21530510,215.39740000,0.00781250
1.38666640,-8.88902600,-0.04613681,208.64600000,0.00781250
1.46666640,-14.94833000,0.01537894,198.40370000,0.00790477
1.54666640,-22.06877000,-0.06151574,184.63950000,0.00812008
1.62666640,-29.83514000,-0.21530510,167.58430000,0.00842766
1.70666640,-37.98597000,-0.43061020,147.73010000,0.00885827
1.78666640,-46.44439000,-0.72281000,125.87660000,0.00931964
1.86666640,-55.47182000,-1.06114600,103.00810000,0.00971949
1.94666641,-65.82185000,-1.55327200,80.23191000,0.00984252
2.02666641,-78.35568000,-2.24532500,58.63988000,0.00947343
2.10666641,-93.53469000,-3.01427100,39.20091000,0.00879675
2.18666641,-111.54340000,-3.69094500,22.69931000,0.00808932
2.26666641,-132.28960000,-4.06003900,9.55032000,0.00772023
2.34666641,-155.34260000,-3.93700800,-0.09227362,0.00793553
2.42666641,-180.13350000,-3.26033400,-6.48991100,0.00898130
2.50666641,-205.89320000,-2.09153500,-10.13472000,0.01067298
2.58666641,-231.91440000,-0.70743110,-11.67261000,0.01264149
2.66666642,-257.61260000,0.43061020,-11.96481000,0.01408711
2.74666642,-282.78790000,0.49212600,-11.78026000,0.01368725
2.82666642,-307.39420000,-1.30720900,-11.54958000,0.01011934
2.90666642,-331.18540000,-5.33649100,-11.50344000,0.00273745
2.98666642,-353.91550000,-11.68799000,-11.65723000,-0.00861220
3.06666642,-375.27680000,-20.17716000,-11.85716000,-0.02362205
3.14666642,-395.02330000,-30.43491000,-11.90330000,-0.04173844
3.22666642,-412.86290000,-41.95374000,-11.54958000,-0.06216166
3.30666642,-428.58020000,-54.33378000,-10.67298000,-0.08409203
3.38666642,-442.02140000,-67.29823000,-9.24274100,-0.10706820
3.46666643,-453.14040000,-80.80093000,-7.47416300,-0.13096700
3.54666643,-462.10630000,-95.34940000,-5.62869100,-0.15634230
3.62666643,-469.16520000,-111.55880000,-3.82935500,-0.18411660
3.70666643,-474.34790000,-129.70590000,-2.15305100,-0.21475150
3.78666643,-477.62360000,-149.94460000,-0.67667320,-0.24858510
3.86666643,-478.93080000,-172.16720000,0.61515740,-0.28561760
3.94666643,-478.11580000,-196.05070000,1.73782000,-0.32547980
4.02666643,-475.10150000,-221.08760000,2.70669300,-0.36740280
4.10666643,-469.79570000,-246.61660000,3.58329200,-0.41027930
4.18666644,-462.22930000,-271.96110000,4.38299700,-0.45284820
4.26666644,-452.49440000,-296.49050000,5.13656500,-0.49369460
4.34666644,-440.86800000,-319.85110000,5.84399600,-0.53168060
4.42666644,-427.87270000,-341.78150000,6.48991100,-0.56572960
4.50666644,-413.93950000,-361.95860000,7.08968900,-0.59485730
4.58666644,-399.52940000,-380.09040000,7.61257400,-0.61820250
4.66666644,-384.95010000,-395.94610000,8.05856200,-0.63536540
4.74666644,-370.38630000,-409.35650000,8.39689900,-0.64613070
4.82666644,-355.89940000,-420.18330000,8.61220400,-0.65068280
4.90666645,-341.36620000,-428.41100000,8.73523500,-0.64945250
4.98666645,-326.58710000,-434.02430000,8.75061400,-0.64311640
5.06666645,-311.17740000,-437.10010000,8.68909800,-0.63235110
5.14666645,-294.87570000,-437.82290000,8.56606700,-0.61807950
5.22666645,-277.89740000,-436.37730000,8.39689900,-0.60100880
5.30666645,-260.62680000,-432.84010000,8.19697300,-0.58166220
5.38666645,-243.60240000,-427.21150000,7.96628900,-0.56043920
5.46666645,-227.33140000,-419.49120000,7.70484700,-0.53740160
5.54666645,-212.19860000,-409.61800000,7.39726800,-0.51267220
5.62666645,-198.41900000,-397.60700000,7.02817400,-0.48615900
5.70666646,-185.96210000,-383.53530000,6.61294300,-0.45789250
5.78666646,-174.55090000,-367.63350000,6.16695300,-0.42808810
5.86666646,-163.49350000,-350.13220000,5.69020700,-0.39686890
5.94666646,-152.14380000,-331.47760000,5.21345900,-0.36478840
6.02666646,-140.33280000,-312.34620000,4.76747000,-0.33264640
6.10666646,-128.15270000,-293.41470000,4.36761800,-0.30155020
6.18666646,-115.88030000,-275.31370000,4.04466000,-0.27242250
6.26666646,-103.88470000,-258.50450000,3.81397600,-0.24609380
6.34666646,-92.51968000,-243.23320000,3.66018700,-0.22308690
6.42666647,-82.04662000,-229.53060000,3.59867100,-0.20340180
6.50666647,-72.58858000,-217.15060000,3.59867100,-0.18679260
6.58666647,-64.11478000,-205.70860000,3.64480800,-0.17261320
6.66666647,-56.19463000,-194.51280000,3.72170300,-0.15963340
6.74666647,-48.45903000,-183.00930000,3.78321800,-0.14680730
6.82666647,-40.87721000,-171.15220000,3.84473400,-0.13385830
6.90666647,-33.57222000,-159.06430000,3.89087100,-0.12084770
6.98666647,-26.71321000,-147.05340000,3.90625000,-0.10808320
7.06666647,-20.56164000,-135.51920000,3.92162900,-0.09614912
7.14666648,-15.30204000,-124.83080000,3.93700800,-0.08547613
7.22666648,-11.08821000,-115.20360000,3.93700800,-0.07649484
7.30666648,-7.90477300,-106.69910000,3.95238700,-0.06929749
7.38666648,-5.64407000,-99.20952000,3.95238700,-0.06373031
7.46666648,-3.99852300,-92.24286000,3.95238700,-0.05908588
7.54666648,-2.66055600,-85.35310000,3.93700800,-0.05465674
7.62666648,-1.55327200,-78.52485000,3.93700800,-0.05022761
7.70666648,-0.69205210,-71.86577000,3.92162900,-0.04573696
7.78666648,-0.12303150,-65.62193000,3.92162900,-0.04133858
7.86666648,0.00000000,-60.10088000,3.93700800,-0.03718627
7.94666649,-0.38447340,-55.53334000,3.96776600,-0.03355684
8.02666649,-1.35334600,-52.07308000,4.02928100,-0.03054257
8.10666649,-2.89124000,-49.65858000,4.10617600,-0.02829724
8.18666649,-4.89050100,-48.13607000,4.18307100,-0.02675935
8.26666649,-7.13582600,-47.04417000,4.25996500,-0.02565207
8.34666649,-9.39653000,-45.85999000,4.29072300,-0.02476009
8.42666649,-11.53420000,-44.39899000,4.27534400,-0.02405266
8.50666649,-13.44119000,-42.55352000,4.19845000,-0.02359129
8.58666649,-15.02522000,-40.38509000,4.02928100,-0.02343750
8.66666650,-16.25554000,-38.03211000,3.78321800,-0.02374508
8.74666650,-17.13213000,-35.67913000,3.44488200,-0.02454478
8.82666650,-17.67040000,-33.44918000,3.01427100,-0.02589813
8.90666650,-17.94722000,-31.43455000,2.50676700,-0.02771284
8.98666650,-18.05487000,-29.63521000,1.98388300,-0.02992741
9.06666650,-18.05487000,-27.85125000,1.43024100,-0.03223425
9.14666650,-18.07025000,-25.86737000,0.92273620,-0.03441806
9.22666650,-18.20866000,-23.49901000,0.49212600,-0.03629429
9.30666650,-18.56238000,-20.71543000,0.18454720,-0.03780143
9.38666651,-19.19291000,-17.47047000,0.01537894,-0.03884719
9.46666651,-20.11565000,-13.81028000,0.01537894,-0.03949311
9.54666651,-21.33058000,-9.81176100,0.18454720,-0.03973917
9.62666651,-22.76083000,-5.56717500,0.49212600,-0.03964690
9.70666651,-24.36024000,-1.19955700,0.92273620,-0.03927780
9.78666651,-25.99040000,3.15268200,1.43024100,-0.03869341
9.86666651,-27.55905000,7.44340500,1.98388300,-0.03786294
9.94666651,-28.94316000,11.59572000,2.50676700,-0.03681717
10.02666651,-30.06582000,15.48659000,3.01427100,-0.03552534
10.10666651,-30.85015000,19.03912000,3.44488200,-0.03401821
10.18666652,-31.29613000,22.14567000,3.78321800,-0.03229577
10.26666652,-31.37303000,24.79084000,4.02928100,-0.03041954
10.34666652,-31.12697000,26.94390000,4.19845000,-0.02835876
10.42666652,-30.57333000,28.62020000,4.27534400,-0.02620571
10.50666652,-29.75824000,29.83514000,4.29072300,-0.02389887
10.58666652,-28.74323000,30.61946000,4.25996500,-0.02153051
10.66666652,-27.51292000,31.03469000,4.18307100,-0.01906988
10.74666652,-26.08268000,31.06545000,4.10617600,-0.01654774
10.82666652,-24.43713000,30.66560000,4.02928100,-0.01399483
10.90666653,-22.62241000,29.78900000,3.96776600,-0.01144193
10.98666653,-20.65391000,28.37414000,3.93700800,-0.00901206
11.06666653,-18.54700000,26.39025000,3.92162900,-0.00673597
11.14666653,-16.33243000,23.83735000,3.92162900,-0.00470596
11.22666653,-14.05635000,20.73080000,3.93700800,-0.00292200
11.30666653,-11.71875000,17.17827000,3.93700800,-0.00141486
11.38666653,-9.36577200,13.27202000,3.95238700,-0.00006152
11.46666653,-6.98203700,9.19660400,3.95238700,0.00116880
11.54666653,-4.55216500,5.05967000,3.93700800,0.00239911
11.62666653,-2.09153500,1.03038900,3.93700800,0.00375246
11.70666654,0.35371550,-2.78358700,3.92162900,0.00529035
