Time,Channel A,Channel B,Channel C,Channel D
(ns),(mV),(mV),(mV),(V)

-15.62352983,0.01537894,-3.92162900,3.92162900,0.00784326
-15.54352982,0.04613681,-3.96776600,3.92162900,0.00784326
-15.46352982,0.09227362,-4.02928100,3.93700800,0.00787402
-15.38352982,0.16916830,-4.10617600,3.95238700,0.00787402
-15.30352982,0.23068400,-4.18307100,3.95238700,0.00790477
-15.22352982,0.30757870,-4.25996500,3.95238700,0.00790477
-15.14352982,0.35371550,-4.29072300,3.95238700,0.00790477
-15.06352982,0.35371550,-4.27534400,3.93700800,0.00787402
-14.98352982,0.27682080,-4.18307100,3.92162900,0.00784326
-14.90352982,0.12303150,-4.02928100,3.92162900,0.00784326
-14.82352981,-0.15378940,-3.79859700,3.92162900,0.00784326
-14.74352981,-0.53826270,-3.49101900,3.92162900,0.00784326
-14.66352981,-1.01501000,-3.10654500,3.93700800,0.00787402
-14.58352981,-1.59940900,-2.67593500,3.95238700,0.00790477
-14.50352981,-2.21456700,-2.21456700,3.95238700,0.00790477
-14.42352981,-2.82972400,-1.73782000,3.95238700,0.00790477
-14.34352981,-3.36798700,-1.26107300,3.95238700,0.00790477
-14.26352981,-3.78321800,-0.83046260,3.93700800,0.00787402
-14.18352981,-4.01390200,-0.43061020,3.92162900,0.00784326
-14.10352980,-4.01390200,-0.12303150,3.92162900,0.00784326
-14.02352980,-3.76783900,0.09227362,3.92162900,0.00784326
-13.94352980,-3.26033400,0.21530510,3.92162900,0.00784326
-13.86352980,-2.52214600,0.24606300,3.93700800,0.00787402
-13.78352980,-1.58403000,0.18454720,3.95238700,0.00790477
-13.70352980,-0.53826270,0.06151574,3.95238700,0.00790477
-13.62352980,0.53826270,-0.06151574,3.95238700,0.00790477
-13.54352980,1.58403000,-0.18454720,3.95238700,0.00787402
-13.46352980,2.52214600,-0.24606300,3.93700800,0.00787402
-13.38352980,3.26033400,-0.23068400,3.92162900,0.00784326
-13.30352979,3.76783900,-0.10765260,3.92162900,0.00784326
-13.22352979,4.01390200,0.13841040,3.92162900,0.00787402
-13.14352979,4.01390200,0.47674700,3.92162900,0.00793553
-13.06352979,3.78321800,0.92273620,3.93700800,0.00805856
-12.98352979,3.36798700,1.43024100,3.95238700,0.00821235
-12.90352979,2.82972400,1.96850400,3.95238700,0.00836614
-12.82352979,2.21456700,2.52214600,3.95238700,0.00851993
-12.74352979,1.59940900,3.01427100,3.95238700,0.00858145
-12.66352979,1.01501000,3.42950300,3.93700800,0.00855069
-12.58352978,0.53826270,3.72170300,3.92162900,0.00839690
-12.50352978,0.15378940,3.89087100,3.92162900,0.00805856
-12.42352978,-0.12303150,3.92162900,3.92162900,0.00756644
-12.34352978,-0.27682080,3.82935500,3.92162900,0.00688976
-12.26352978,-0.35371550,3.62942900,3.93700800,0.00602854
-12.18352978,-0.35371550,3.35260800,3.95238700,0.00501353
-12.10352978,-0.30757870,2.99889300,3.95238700,0.00396777
-12.02352978,-0.23068400,2.58366100,3.95238700,0.00286048
-11.94352978,-0.16916830,2.12229300,3.95238700,0.00184547
-11.86352977,-0.09227362,1.59940900,3.93700800,0.00098425
-11.78352977,-0.04613681,1.01501000,3.92162900,0.00036909
-11.70352977,-0.01537894,0.35371550,3.92162900,0.00003076
-11.62352977,0.00000000,-0.38447340,3.92162900,0.00003076
-11.54352977,0.01537894,-1.19955700,3.92162900,0.00036909
-11.46352977,0.00000000,-2.09153500,3.93700800,0.00098425
-11.38352977,0.00000000,-3.04502900,3.95238700,0.00184547
-11.30352977,0.00000000,-4.01390200,3.95238700,0.00286048
-11.22352977,0.00000000,-4.96739600,3.95238700,0.00396777
-11.14352977,0.00000000,-5.85937500,3.95238700,0.00501353
-11.06352976,0.00000000,-6.64370100,3.93700800,0.00599779
-10.98352976,0.00000000,-7.25885800,3.92162900,0.00685901
-10.90352976,0.00000000,-7.70484700,3.92162900,0.00756644
-10.82352976,0.00000000,-7.93553100,3.92162900,0.00808932
-10.74352976,0.00000000,-7.96628900,3.92162900,0.00848917
-10.66352976,0.00000000,-7.79712100,3.93700800,0.00873524
-10.58352976,0.00000000,-7.47416300,3.95238700,0.00891978
-10.50352976,0.00000000,-7.01279500,3.95238700,0.00898130
-10.42352976,0.00000000,-6.47453200,3.95238700,0.00898130
-10.34352975,0.00000000,-5.89013200,3.93700800,0.00891978
-10.26352975,0.00000000,-5.29035400,3.93700800,0.00873524
-10.18352975,-0.01537894,-4.72133400,3.92162900,0.00848917
-10.10352975,0.00000000,-4.18307100,3.92162900,0.00808932
-10.02352975,0.01537894,-3.67556500,3.93700800,0.00756644
-9.94352975,0.04613681,-3.19881900,3.96776600,0.00685901
-9.86352975,0.09227362,-2.75283000,4.02928100,0.00599779
-9.78352975,0.16916830,-2.32221900,4.10617600,0.00501353
-9.70352975,0.23068400,-1.90698800,4.18307100,0.00396777
-9.62352974,0.30757870,-1.50713600,4.25996500,0.00286048
-9.54352974,0.35371550,-1.10728300,4.29072300,0.00184547
-9.46352974,0.35371550,-0.73818890,4.27534400,0.00098425
-9.38352974,0.27682080,-0.39985230,4.18307100,0.00036909
-9.30352974,0.12303150,-0.12303150,4.02928100,0.00003076
-9.22352974,-0.15378940,0.10765260,3.79859700,0.00003076
-9.14352974,-0.53826270,0.24606300,3.49101900,0.00036909
-9.06352974,-1.01501000,0.32295760,3.10654500,0.00098425
-8.98352974,-1.59940900,0.33833660,2.67593500,0.00184547
-8.90352974,-2.21456700,0.30757870,2.21456700,0.00286048
-8.82352973,-2.82972400,0.23068400,1.73782000,0.00396777
-8.74352973,-3.36798700,0.15378940,1.27645200,0.00501353
-8.66352973,-3.78321800,0.09227362,0.83046260,0.00602854
-8.58352973,-4.01390200,0.03075787,0.46136810,0.00688976
-8.50352973,-4.01390200,0.00000000,0.13841040,0.00756644
-8.42352973,-3.76783900,0.00000000,-0.12303150,0.00805856
-8.34352973,-3.26033400,0.03075787,-0.30757870,0.00839690
-8.26352973,-2.52214600,0.09227362,-0.43061020,0.00855069
-8.18352973,-1.58403000,0.15378940,-0.50750490,0.00858145
-8.10352972,-0.53826270,0.23068400,-0.53826270,0.00851993
-8.02352972,0.53826270,0.30757870,-0.53826270,0.00836614
-7.94352972,1.58403000,0.33833660,-0.50750490,0.00821235
-7.86352972,2.52214600,0.33833660,-0.43061020,0.00805856
-7.78352972,3.26033400,0.26144190,-0.30757870,0.00793553
-7.70352972,3.76783900,0.10765260,-0.12303150,0.00787402
-7.62352972,4.01390200,-0.12303150,0.13841040,0.00784326
-7.54352972,4.01390200,-0.44598910,0.46136810,0.00784326
-7.46352972,3.78321800,-0.83046260,0.83046260,0.00787402
-7.38352972,3.36798700,-1.26107300,1.27645200,0.00787402
-7.30352971,2.82972400,-1.73782000,1.73782000,0.00790477
-7.22352971,2.21456700,-2.21456700,2.21456700,0.00790477
-7.14352971,1.58403000,-2.67593500,2.67593500,0.00790477
-7.06352971,1.01501000,-3.10654500,3.10654500,0.00787402
-6.98352971,0.52288380,-3.49101900,3.49101900,0.00784326
-6.90352971,0.13841040,-3.79859700,3.79859700,0.00784326
-6.82352971,-0.10765260,-4.02928100,4.02928100,0.00784326
-6.74352971,-0.23068400,-4.18307100,4.18307100,0.00784326
-6.66352971,-0.24606300,-4.27534400,4.27534400,0.00787402
-6.58352970,-0.18454720,-4.29072300,4.29072300,0.00790477
-6.50352970,-0.06151574,-4.25996500,4.25996500,0.00790477
-6.42352970,0.06151574,-4.18307100,4.18307100,0.00790477
-6.34352970,0.18454720,-4.10617600,4.10617600,0.00790477
-6.26352970,0.24606300,-4.02928100,4.02928100,0.00787402
-6.18352970,0.23068400,-3.96776600,3.96776600,0.00784326
-6.10352970,0.10765260,-3.93700800,3.93700800,0.00784326
-6.02352970,-0.13841040,-3.92162900,3.92162900,0.00784326
-5.94352970,-0.47674700,-3.92162900,3.92162900,0.00784326
-5.86352969,-0.92273620,-3.93700800,3.93700800,0.00787402
-5.78352969,-1.43024100,-3.93700800,3.93700800,0.00790477
-5.70352969,-1.96850400,-3.95238700,3.95238700,0.00790477
-5.62352969,-2.52214600,-3.95238700,3.95238700,0.00790477
-5.54352969,-3.02965000,-3.95238700,3.95238700,0.00787402
-5.46352969,-3.44488200,-3.93700800,3.93700800,0.00787402
-5.38352969,-3.75246000,-3.92162900,3.92162900,0.00784326
-5.30352969,-3.90625000,-3.92162900,3.92162900,0.00784326
-5.22352969,-3.89087100,-3.92162900,3.92162900,0.00787402
-5.14352969,-3.70632400,-3.92162900,3.92162900,0.00793553
-5.06352968,-3.35260800,-3.93700800,3.93700800,0.00805856
-4.98352968,-2.86048200,-3.95238700,3.95238700,0.00821235
-4.90352968,-2.27608300,-3.95238700,3.95238700,0.00836614
-4.82352968,-1.67630400,-3.95238700,3.95238700,0.00851993
-4.74352968,-1.09190400,-3.95238700,3.93700800,0.00858145
-4.66352968,-0.58439960,-3.93700800,3.93700800,0.00855069
-4.58352968,-0.21530510,-3.92162900,3.92162900,0.00836614
-4.50352968,-0.03075787,-3.92162900,3.92162900,0.00805856
-4.42352968,-0.03075787,-3.92162900,3.93700800,0.00759720
-4.34352967,-0.21530510,-3.92162900,3.96776600,0.00698204
-4.26352967,-0.58439960,-3.93700800,4.02928100,0.00621309
-4.18352967,-1.09190400,-3.95238700,4.10617600,0.00535187
-4.10352967,-1.67630400,-3.95238700,4.18307100,0.00442913
-4.02352967,-2.27608300,-3.95238700,4.25996500,0.00347564
-3.94352967,-2.86048200,-3.95238700,4.29072300,0.00252215
-3.86352967,-3.35260800,-3.93700800,4.27534400,0.00166093
-3.78352967,-3.70632400,-3.92162900,4.19845000,0.00089198
-3.70352967,-3.89087100,-3.92162900,4.02928100,0.00024606
-3.62352966,-3.89087100,-3.92162900,3.78321800,-0.00021531
-3.54352966,-3.70632400,-3.92162900,3.44488200,-0.00052288
-3.46352966,-3.35260800,-3.93700800,3.01427100,-0.00067667
-3.38352966,-2.86048200,-3.95238700,2.50676700,-0.00067667
-3.30352966,-2.27608300,-3.95238700,1.98388300,-0.00061516
-3.22352966,-1.67630400,-3.95238700,1.43024100,-0.00046137
-3.14352966,-1.09190400,-3.95238700,0.92273620,-0.00030758
-3.06352966,-0.58439960,-3.93700800,0.49212600,-0.00018455
-2.98352966,-0.21530510,-3.93700800,0.18454720,-0.00006152
-2.90352966,-0.03075787,-3.92162900,0.01537894,0.00000000
-2.82352965,-0.03075787,-3.90625000,0.01537894,0.00000000
-2.74352965,-0.21530510,-3.89087100,0.18454720,-0.00006152
-2.66352965,-0.58439960,-3.84473400,0.49212600,-0.00018455
-2.58352965,-1.09190400,-3.78321800,0.92273620,-0.00030758
-2.50352965,-1.67630400,-3.72170300,1.43024100,-0.00046137
-2.42352965,-2.27608300,-3.64480800,1.98388300,-0.00061516
-2.34352965,-2.86048200,-3.59867100,2.50676700,-0.00067667
-2.26352965,-3.35260800,-3.58329200,3.01427100,-0.00067667
-2.18352965,-3.70632400,-3.64480800,3.44488200,-0.00052288
-2.10352964,-3.89087100,-3.79859700,3.78321800,-0.00021531
-2.02352964,-3.90625000,-4.07541800,4.02928100,0.00024606
-1.94352964,-3.75246000,-4.45989200,4.19845000,0.00089198
-1.86352964,-3.44488200,-4.95201700,4.27534400,0.00166093
-1.78352964,-3.02965000,-5.53641700,4.29072300,0.00252215
-1.70352964,-2.52214600,-6.16695300,4.25996500,0.00347564
-1.62352964,-1.96850400,-6.78211100,4.18307100,0.00442913
-1.54352964,-1.43024100,-7.30499500,4.13693400,0.00535187
-1.46352964,-0.92273620,-7.72022600,4.13693400,0.00621309
-1.38352963,-0.49212600,-7.93553100,4.13693400,0.00695128
-1.30352963,-0.13841040,-7.93553100,4.04466000,0.00756644
-1.22352963,0.10765260,-7.68946800,3.75246000,0.00808932
-1.14352963,0.27682080,-7.22810000,3.18344000,0.00845842
-1.06352963,0.33833660,-6.55142700,2.32221900,0.00873524
-0.98352963,0.35371550,-5.69020700,1.18417800,0.00888903
-0.90352963,0.30757870,-4.73671200,-0.07689468,0.00898130
-0.82352963,0.23068400,-3.70632400,-1.21493600,0.00898130
-0.74352963,0.15378940,-2.70669300,-1.79933500,0.00891978
-0.66352963,0.09227362,-1.75319900,-1.38410400,0.00873524
-0.58352962,0.03075787,-0.93811510,0.06151574,0.00848917
-0.50352962,0.00000000,-0.26144190,2.46063000,0.00808932
-0.42352962,0.00000000,0.21530510,5.52103800,0.00756644
-0.34352962,0.03075787,0.53826270,8.93516300,0.00685901
-0.26352962,0.09227362,0.67667320,12.44156000,0.00599779
-0.18352962,0.15378940,0.69205210,15.93258000,0.00501353
-0.10352962,0.23068400,0.61515740,19.53125000,0.00396777
-0.02352962,0.30757870,0.47674700,23.63743000,0.00286048
0.05647038,0.32295760,0.32295760,29.00467000,0.00184547
0.13647039,0.24606300,0.18454720,36.54035000,0.00098425
0.21647039,0.13841040,0.09227362,47.16720000,0.00036909
0.29647039,0.03075787,0.01537894,61.70029000,0.00003076
0.37647039,0.00000000,-0.01537894,80.64714000,0.00003076
0.45647039,0.12303150,-0.01537894,104.11540000,0.00036909
0.53647039,0.39985230,-0.01537894,131.62830000,0.00098425
0.61647039,0.84584150,0.00000000,162.10940000,0.00184547
0.69647039,1.33796700,0.00000000,194.00530000,0.00286048
0.77647039,1.73782000,0.00000000,225.27070000,0.00396777
0.85647039,1.69168300,0.00000000,253.70630000,0.00501353
0.93647040,0.89197830,-0.01537894,277.09770000,0.00599779
1.01647040,-0.63053640,-0.01537894,293.49160000,0.00682825
1.09647040,-2.73745100,-0.01537894,301.45790000,0.00753568
1.17647040,-5.13656500,0.01537894,300.25840000,0.00812008
1.25647040,-7.55105800,0.09227362,289.86220000,0.00858145
1.33647040,-9.75024500,0.18454720,271.06910000,0.00895054
1.41647040,-11.68799000,0.32295760,245.32480000,0.00922736
1.49647040,-13.59498000,0.47674700,214.59770000,0.00947343
1.57647040,-15.93258000,0.61515740,181.13310000,0.00959646
1.65647041,-19.71580000,0.64591530,147.22250000,0.00953494
1.73647041,-25.92889000,0.53826270,114.94220000,0.00919661
1.81647041,-35.12549000,0.32295760,85.95287000,0.00867372
1.89647041,-47.52091000,0.09227362,61.40809000,0.00808932
1.97647041,-63.03826000,-0.06151574,41.83070000,0.00762795
2.05647041,-81.23154000,-0.03075787,27.20534000,0.00744341
2.13647041,-101.50100000,0.24606300,16.96297000,0.00756644
2.21647041,-123.12380000,0.70743110,10.27313000,0.00799705
2.29647041,-145.48470000,1.26107300,6.07468000,0.00851993
2.37647042,-168.10720000,1.66092500,3.32185000,0.00879675
2.45647042,-191.05250000,1.41486200,1.10728300,0.00799705
2.53647042,-214.47460000,0.10765260,-1.12266200,0.00553642
2.61647042,-238.32740000,-2.33759800,-3.64480800,0.00126107
2.69647042,-262.45690000,-5.81323800,-6.41301600,-0.00452141
2.77647042,-286.64800000,-10.02707000,-9.24274100,-0.01138041
2.85647042,-310.57760000,-14.64075000,-11.81102000,-0.01873155
2.93647042,-333.84590000,-19.36208000,-13.79491000,-0.02608268
3.01647042,-356.03780000,-24.05266000,-15.00984000,-0.03331078
3.09647042,-376.79930000,-28.83550000,-15.39431000,-0.04056964
3.17647043,-395.80770000,-34.11048000,-15.19439000,-0.04868972
3.25647043,-413.07820000,-40.81570000,-14.73302000,-0.05911664
3.33647043,-428.62630000,-49.93541000,-14.08710000,-0.07360359
3.41647043,-442.31360000,-62.03863000,-13.30278000,-0.09319635
3.49647043,-453.94010000,-77.40218000,-12.33391000,-0.11851010
3.57647043,-463.30580000,-95.94918000,-11.13435000,-0.14963710
3.65647043,-470.21100000,-117.29510000,-9.62721400,-0.18605440
3.73647043,-474.48630000,-140.80950000,-7.79712100,-0.22677780
3.81647043,-476.08570000,-165.70800000,-5.64407000,-0.27033100
3.89647044,-475.03990000,-191.23710000,-3.22957700,-0.31520670
3.97647044,-471.50280000,-216.72000000,-0.72281000,-0.35989790
4.05647044,-465.85870000,-241.91070000,1.72244100,-0.40326650
4.13647044,-458.55370000,-266.71690000,3.96776600,-0.44451280
4.21647044,-449.98770000,-290.90800000,5.84399600,-0.48280640
4.29647044,-440.45270000,-314.26860000,7.30499500,-0.51753200
4.37647044,-430.13350000,-336.56800000,8.25848900,-0.54835130
4.45647044,-419.10680000,-357.59100000,8.71985600,-0.57504920
4.53647044,-407.32650000,-377.10690000,8.71985600,-0.59759470
4.61647045,-394.68500000,-394.85420000,8.35076200,-0.61598800
4.69647045,-381.09000000,-410.57150000,7.68946800,-0.63029030
4.77647045,-366.29550000,-424.05880000,6.87438400,-0.64050200
4.85647045,-350.27060000,-435.25460000,6.02854300,-0.64671500
4.93647045,-333.33840000,-444.11290000,5.24421700,-0.64889880
5.01647045,-315.97560000,-450.47980000,4.58292300,-0.64686880
5.09647045,-298.70510000,-454.18610000,4.10617600,-0.64037900
5.17647045,-282.00360000,-455.09350000,3.78321800,-0.62930610
5.25647045,-266.25550000,-453.10960000,3.61405000,-0.61352730
5.33647045,-251.59940000,-448.21910000,3.56791300,-0.59313480
5.41647046,-237.94290000,-440.52960000,3.59867100,-0.56852850
5.49647046,-225.04000000,-430.25650000,3.64480800,-0.54023130
5.57647046,-212.19860000,-417.66110000,3.72170300,-0.50904280
5.65647046,-198.86500000,-403.18960000,3.78321800,-0.47594740
5.73647046,-184.94710000,-387.39540000,3.84473400,-0.44205220
5.81647046,-170.59850000,-370.77080000,3.89087100,-0.40852610
5.89647046,-156.17310000,-353.74630000,3.90625000,-0.37629180
5.97647046,-142.07060000,-336.59880000,3.92162900,-0.34599530
6.05647046,-128.72170000,-319.48200000,3.93700800,-0.31797490
6.13647047,-116.37240000,-302.44210000,3.93700800,-0.29223050
6.21647047,-105.13040000,-285.40230000,3.95238700,-0.26848550
6.29647047,-94.91880000,-268.25480000,3.95238700,-0.24624750
6.37647047,-85.21468000,-250.73820000,3.95238700,-0.22468630
6.45647047,-75.60284000,-232.77560000,3.95238700,-0.20324800
6.53647047,-66.00639000,-214.72070000,3.93700800,-0.18202510
6.61647047,-56.54835000,-197.08110000,3.93700800,-0.16147880
6.69647047,-47.45940000,-180.39490000,3.92162900,-0.14225520
6.77647047,-39.03174000,-165.20050000,3.90625000,-0.12506150
6.85647048,-31.54220000,-151.85160000,3.89087100,-0.11048230
6.93647048,-25.14456000,-140.47120000,3.84473400,-0.09879429
7.01647048,-19.90034000,-130.95160000,3.78321800,-0.08990526
7.09647048,-15.67113000,-122.90850000,3.72170300,-0.08338460
7.17647048,-12.11860000,-115.58810000,3.64480800,-0.07818651
7.25647048,-8.88902600,-108.32920000,3.59867100,-0.07326525
7.33647048,-5.90551100,-100.90120000,3.59867100,-0.06822097
7.41647048,-3.22957700,-93.36552000,3.66018700,-0.06293061
7.49647048,-0.93811510,-85.93749000,3.81397600,-0.05754798
7.57647048,0.78432570,-78.95546000,4.06003900,-0.05234990
7.65647049,1.79933500,-72.74237000,4.41375400,-0.04767470
7.73647049,2.04539800,-67.49815000,4.85974400,-0.04379921
7.81647049,1.52251500,-63.31508000,5.38262700,-0.04084646
7.89647049,0.33833660,-60.03937000,5.92089000,-0.03881644
7.97647049,-1.21493600,-57.24040000,6.47453200,-0.03730930
8.05647049,-2.87586100,-54.39529000,6.96665800,-0.03592520
8.13647049,-4.50602900,-51.38103000,7.38188900,-0.03457185
8.21647049,-5.99778500,-48.15145000,7.67408900,-0.03324926
8.29647049,-7.27423700,-44.79884000,7.82787800,-0.03195743
8.37647050,-8.36614100,-41.52312000,7.82787800,-0.03085015
8.45647050,-9.28887700,-38.50886000,7.67408900,-0.02995817
8.53647050,-10.08858000,-35.86368000,7.38188900,-0.02940453
8.61647050,-10.81139000,-33.69525000,6.96665800,-0.02921998
8.69647050,-11.51882000,-31.89591000,6.47453200,-0.02931225
8.77647050,-12.19550000,-30.25037000,5.92089000,-0.02958908
8.85647050,-12.88755000,-28.46641000,5.38262700,-0.02989665
8.93647050,-13.61036000,-26.37487000,4.85974400,-0.03023499
9.01647050,-14.39468000,-23.91425000,4.41375400,-0.03060408
9.09647051,-15.24053000,-21.11528000,4.06003900,-0.03109621
9.17647051,-16.14788000,-18.03949000,3.81397600,-0.03171137
9.25647051,-17.05524000,-14.79454000,3.66018700,-0.03254183
9.33647051,-17.96260000,-11.47269000,3.59867100,-0.03355684
9.41647051,-18.83920000,-8.18159400,3.59867100,-0.03475640
9.49647051,-19.65428000,-4.98277500,3.64480800,-0.03604823
9.57647051,-20.40785000,-1.84547200,3.72170300,-0.03724778
9.65647051,-21.09990000,1.27645200,3.78321800,-0.03829355
9.73647051,-21.77658000,4.36761800,3.84473400,-0.03900098
9.81647051,-22.45325000,7.39726800,3.89087100,-0.03937008
9.89647052,-23.16068000,10.33464000,3.92162900,-0.03937008
9.97647052,-23.92962000,13.14899000,3.92162900,-0.03900098
10.05647052,-24.77547000,15.80955000,3.89087100,-0.03829355
10.13647052,-25.68282000,18.25480000,3.84473400,-0.03727854
10.21647052,-26.60556000,20.46936000,3.78321800,-0.03604823
10.29647052,-27.48216000,22.42249000,3.72170300,-0.03460261
10.37647052,-28.22035000,24.12955000,3.64480800,-0.03297244
10.45647052,-28.72785000,25.54441000,3.59867100,-0.03112697
10.53647052,-28.89702000,26.62094000,3.59867100,-0.02912771
10.61647053,-28.65096000,27.29761000,3.66018700,-0.02694390
10.69647053,-27.97429000,27.52830000,3.81397600,-0.02469857
10.77647053,-26.83624000,27.26685000,4.06003900,-0.02236097
10.85647053,-25.28297000,26.54404000,4.41375400,-0.02002338
10.93647053,-23.37598000,25.35987000,4.85974400,-0.01765502
11.01647053,-21.16142000,23.77584000,5.38262700,-0.01531742
11.09647053,-18.73154000,21.85347000,5.92089000,-0.01301058
11.17647053,-16.13251000,19.66966000,6.47453200,-0.01070374
11.25647053,-13.44119000,17.28592000,6.96665800,-0.00833538
11.33647053,-10.67298000,14.73302000,7.38188900,-0.00593627
