Time,Channel A,Channel B,Channel C,Channel D
(ns),(mV),(mV),(mV),(V)

-15.30181883,-3.89087100,0.12303150,4.02928100,0.00784326
-15.22181882,-3.73708200,0.30757870,4.15231300,0.00784326
-15.14181882,-3.42950300,0.43061020,4.18307100,0.00787402
-15.06181882,-3.01427100,0.50750490,4.13693400,0.00790477
-14.98181882,-2.52214600,0.53826270,4.01390200,0.00790477
-14.90181882,-1.96850400,0.53826270,3.89087100,0.00790477
-14.82181882,-1.43024100,0.50750490,3.76783900,0.00790477
-14.74181882,-0.92273620,0.43061020,3.69094500,0.00787402
-14.66181882,-0.47674700,0.30757870,3.70632400,0.00784326
-14.58181882,-0.13841040,0.12303150,3.81397600,0.00784326
-14.50181881,0.10765260,-0.13841040,4.06003900,0.00784326
-14.42181881,0.23068400,-0.49212600,4.39837600,0.00784326
-14.34181881,0.24606300,-0.93811510,4.85974400,0.00787402
-14.26181881,0.18454720,-1.43024100,5.36724900,0.00790477
-14.18181881,0.06151574,-1.96850400,5.92089000,0.00790477
-14.10181881,-0.06151574,-2.52214600,6.47453200,0.00790477
-14.02181881,-0.18454720,-3.01427100,6.96665800,0.00790477
-13.94181881,-0.24606300,-3.44488200,7.38188900,0.00787402
-13.86181881,-0.23068400,-3.73708200,7.67408900,0.00784326
-13.78181880,-0.10765260,-3.90625000,7.82787800,0.00784326
-13.70181880,0.13841040,-3.90625000,7.82787800,0.00784326
-13.62181880,0.47674700,-3.73708200,7.67408900,0.00784326
-13.54181880,0.92273620,-3.44488200,7.38188900,0.00787402
-13.46181880,1.43024100,-3.01427100,6.96665800,0.00790477
-13.38181880,1.96850400,-2.52214600,6.47453200,0.00790477
-13.30181880,2.52214600,-1.96850400,5.92089000,0.00790477
-13.22181880,3.02965000,-1.43024100,5.38262700,0.00790477
-13.14181880,3.44488200,-0.92273620,4.85974400,0.00787402
-13.06181880,3.75246000,-0.49212600,4.41375400,0.00784326
-12.98181879,3.90625000,-0.13841040,4.06003900,0.00784326
-12.90181879,3.89087100,0.10765260,3.81397600,0.00784326
-12.82181879,3.70632400,0.27682080,3.66018700,0.00784326
-12.74181879,3.35260800,0.33833660,3.59867100,0.00787402
-12.66181879,2.86048200,0.35371550,3.59867100,0.00790477
-12.58181879,2.27608300,0.30757870,3.64480800,0.00790477
-12.50181879,1.67630400,0.23068400,3.72170300,0.00790477
-12.42181879,1.09190400,0.16916830,3.78321800,0.00790477
-12.34181879,0.58439960,0.09227362,3.84473400,0.00787402
-12.26181878,0.21530510,0.04613681,3.89087100,0.00784326
-12.18181878,0.03075787,0.01537894,3.90625000,0.00784326
-12.10181878,0.03075787,0.00000000,3.92162900,0.00784326
-12.02181878,0.21530510,-0.01537894,3.93700800,0.00784326
-11.94181878,0.58439960,0.00000000,3.93700800,0.00787402
-11.86181878,1.09190400,0.00000000,3.95238700,0.00790477
-11.78181878,1.67630400,0.00000000,3.95238700,0.00790477
-11.70181878,2.27608300,0.00000000,3.95238700,0.00790477
-11.62181878,2.86048200,0.00000000,3.95238700,0.00790477
-11.54181877,3.35260800,0.00000000,3.93700800,0.00787402
-11.46181877,3.70632400,-0.01537894,3.92162900,0.00784326
-11.38181877,3.89087100,0.00000000,3.92162900,0.00784326
-11.30181877,3.90625000,0.01537894,3.92162900,0.00784326
-11.22181877,3.75246000,0.04613681,3.92162900,0.00784326
-11.14181877,3.44488200,0.09227362,3.93700800,0.00787402
-11.06181877,3.02965000,0.16916830,3.95238700,0.00790477
-10.98181877,2.52214600,0.23068400,3.95238700,0.00790477
-10.90181877,1.96850400,0.30757870,3.95238700,0.00790477
-10.82181877,1.43024100,0.35371550,3.95238700,0.00790477
-10.74181876,0.92273620,0.33833660,3.93700800,0.00787402
-10.66181876,0.49212600,0.27682080,3.92162900,0.00784326
-10.58181876,0.13841040,0.10765260,3.92162900,0.00784326
-10.50181876,-0.10765260,-0.13841040,3.92162900,0.00784326
-10.42181876,-0.27682080,-0.49212600,3.92162900,0.00784326
-10.34181876,-0.33833660,-0.92273620,3.93700800,0.00787402
-10.26181876,-0.35371550,-1.43024100,3.95238700,0.00790477
-10.18181876,-0.30757870,-1.96850400,3.95238700,0.00790477
-10.10181876,-0.23068400,-2.52214600,3.95238700,0.00790477
-10.02181875,-0.16916830,-3.02965000,3.95238700,0.00787402
-9.94181875,-0.09227362,-3.44488200,3.93700800,0.00787402
-9.86181875,-0.04613681,-3.75246000,3.93700800,0.00784326
-9.78181875,-0.01537894,-3.90625000,3.92162900,0.00784326
-9.70181875,0.00000000,-3.89087100,3.90625000,0.00787402
-9.62181875,0.01537894,-3.70632400,3.89087100,0.00793553
-9.54181875,0.00000000,-3.35260800,3.84473400,0.00805856
-9.46181875,0.00000000,-2.86048200,3.78321800,0.00821235
-9.38181875,0.00000000,-2.27608300,3.72170300,0.00836614
-9.30181874,0.00000000,-1.67630400,3.64480800,0.00851993
-9.22181874,0.00000000,-1.09190400,3.59867100,0.00858145
-9.14181874,0.00000000,-0.59977850,3.59867100,0.00855069
-9.06181874,-0.01537894,-0.23068400,3.66018700,0.00839690
-8.98181874,0.00000000,-0.03075787,3.81397600,0.00805856
-8.90181874,0.01537894,0.00000000,4.06003900,0.00756644
-8.82181874,0.04613681,-0.13841040,4.41375400,0.00688976
-8.74181874,0.09227362,-0.39985230,4.85974400,0.00602854
-8.66181874,0.16916830,-0.75356790,5.38262700,0.00501353
-8.58181874,0.23068400,-1.19955700,5.92089000,0.00396777
-8.50181873,0.30757870,-1.67630400,6.47453200,0.00286048
-8.42181873,0.35371550,-2.16843000,6.96665800,0.00184547
-8.34181873,0.33833660,-2.67593500,7.38188900,0.00098425
-8.26181873,0.27682080,-3.16806100,7.67408900,0.00033834
-8.18181873,0.10765260,-3.67556500,7.82787800,0.00003076
-8.10181873,-0.13841040,-4.16769200,7.82787800,0.00006152
-8.02181873,-0.49212600,-4.69057600,7.67408900,0.00046137
-7.94181873,-0.92273620,-5.19808000,7.38188900,0.00116880
-7.86181873,-1.43024100,-5.72096400,6.96665800,0.00218381
-7.78181872,-1.96850400,-6.22846900,6.47453200,0.00335261
-7.70181872,-2.52214600,-6.70521600,5.92089000,0.00455217
-7.62181872,-3.01427100,-7.13582600,5.38262700,0.00572097
-7.54181872,-3.44488200,-7.47416300,4.85974400,0.00670522
-7.46181872,-3.73708200,-7.72022600,4.41375400,0.00741265
-7.38181872,-3.90625000,-7.84325700,4.06003900,0.00778174
-7.30181872,-3.90625000,-7.81250000,3.81397600,0.00778174
-7.22181872,-3.73708200,-7.61257400,3.66018700,0.00741265
-7.14181872,-3.44488200,-7.27423700,3.59867100,0.00670522
-7.06181872,-3.01427100,-6.79749000,3.59867100,0.00572097
-6.98181871,-2.52214600,-6.22846900,3.64480800,0.00455217
-6.90181871,-1.96850400,-5.62869100,3.72170300,0.00335261
-6.82181871,-1.43024100,-5.02891200,3.78321800,0.00218381
-6.74181871,-0.92273620,-4.52140800,3.82935500,0.00116880
-6.66181871,-0.47674700,-4.15231300,3.87549200,0.00046137
-6.58181871,-0.13841040,-3.95238700,3.90625000,0.00006152
-6.50181871,0.10765260,-3.95238700,3.93700800,0.00003076
-6.42181871,0.23068400,-4.15231300,3.98314500,0.00033834
-6.34181871,0.24606300,-4.52140800,4.04466000,0.00098425
-6.26181870,0.18454720,-5.02891200,4.10617600,0.00184547
-6.18181870,0.06151574,-5.62869100,4.18307100,0.00286048
-6.10181870,-0.06151574,-6.22846900,4.25996500,0.00396777
-6.02181870,-0.18454720,-6.79749000,4.29072300,0.00501353
-5.94181870,-0.24606300,-7.27423700,4.27534400,0.00602854
-5.86181870,-0.23068400,-7.61257400,4.19845000,0.00688976
-5.78181870,-0.10765260,-7.81250000,4.02928100,0.00756644
-5.70181870,0.13841040,-7.84325700,3.78321800,0.00805856
-5.62181870,0.47674700,-7.72022600,3.44488200,0.00839690
-5.54181869,0.92273620,-7.47416300,3.01427100,0.00855069
-5.46181869,1.43024100,-7.13582600,2.50676700,0.00858145
-5.38181869,1.96850400,-6.70521600,1.98388300,0.00851993
-5.30181869,2.52214600,-6.22846900,1.43024100,0.00836614
-5.22181869,3.01427100,-5.72096400,0.92273620,0.00821235
-5.14181869,3.44488200,-5.19808000,0.49212600,0.00805856
-5.06181869,3.73708200,-4.67519700,0.18454720,0.00793553
-4.98181869,3.90625000,-4.16769200,0.01537894,0.00787402
-4.90181869,3.90625000,-3.67556500,0.01537894,0.00784326
-4.82181869,3.73708200,-3.21419800,0.18454720,0.00784326
-4.74181868,3.44488200,-2.76820900,0.49212600,0.00787402
-4.66181868,3.01427100,-2.33759800,0.92273620,0.00787402
-4.58181868,2.52214600,-1.90698800,1.43024100,0.00790477
-4.50181868,1.96850400,-1.50713600,1.98388300,0.00790477
-4.42181868,1.43024100,-1.10728300,2.50676700,0.00790477
-4.34181868,0.92273620,-0.73818890,3.01427100,0.00787402
-4.26181868,0.47674700,-0.41523130,3.44488200,0.00784326
-4.18181868,0.13841040,-0.12303150,3.78321800,0.00784326
-4.10181868,-0.10765260,0.10765260,4.02928100,0.00784326
-4.02181867,-0.23068400,0.29219980,4.19845000,0.00784326
-3.94181867,-0.24606300,0.43061020,4.27534400,0.00787402
-3.86181867,-0.18454720,0.50750490,4.29072300,0.00790477
-3.78181867,-0.06151574,0.53826270,4.25996500,0.00790477
-3.70181867,0.06151574,0.53826270,4.18307100,0.00790477
-3.62181867,0.18454720,0.50750490,4.10617600,0.00787402
-3.54181867,0.24606300,0.43061020,4.02928100,0.00787402
-3.46181867,0.21530510,0.29219980,3.96776600,0.00784326
-3.38181867,0.09227362,0.10765260,3.93700800,0.00784326
-3.30181866,-0.12303150,-0.12303150,3.92162900,0.00787402
-3.22181866,-0.43061020,-0.41523130,3.92162900,0.00793553
-3.14181866,-0.83046260,-0.73818890,3.93700800,0.00805856
-3.06181866,-1.26107300,-1.10728300,3.93700800,0.00821235
-2.98181866,-1.73782000,-1.50713600,3.95238700,0.00836614
-2.90181866,-2.21456700,-1.90698800,3.95238700,0.00851993
-2.82181866,-2.67593500,-2.33759800,3.93700800,0.00858145
-2.74181866,-3.10654500,-2.76820900,3.93700800,0.00855069
-2.66181866,-3.49101900,-3.22957700,3.92162900,0.00839690
-2.58181866,-3.79859700,-3.69094500,3.92162900,0.00805856
-2.50181865,-4.02928100,-4.15231300,3.93700800,0.00756644
-2.42181865,-4.18307100,-4.62906000,3.96776600,0.00688976
-2.34181865,-4.27534400,-5.10580700,4.02928100,0.00602854
-2.26181865,-4.29072300,-5.55179600,4.10617600,0.00501353
-2.18181865,-4.25996500,-5.99778500,4.18307100,0.00396777
-2.10181865,-4.18307100,-6.39763700,4.25996500,0.00286048
-2.02181865,-4.10617600,-6.78211100,4.29072300,0.00184547
-1.94181865,-4.02928100,-7.13582600,4.29072300,0.00098425
-1.86181865,-3.96776600,-7.44340500,4.21382900,0.00036909
-1.78181864,-3.92162900,-7.72022600,4.04466000,0.00003076
-1.70181864,-3.92162900,-7.95091000,3.76783900,0.00003076
-1.62181864,-3.96776600,-8.15083600,3.35260800,0.00036909
-1.54181864,-4.02928100,-8.28924700,2.81434500,0.00098425
-1.46181864,-4.10617600,-8.39689900,2.18380900,0.00184547
-1.38181864,-4.18307100,-8.44303500,1.50713600,0.00286048
-1.30181864,-4.25996500,-8.44303500,0.83046260,0.00396777
-1.22181864,-4.29072300,-8.39689900,0.33833660,0.00501353
-1.14181864,-4.27534400,-8.28924700,0.18454720,0.00602854
-1.06181863,-4.18307100,-8.15083600,0.19992620,0.00688976
-0.98181863,-4.02928100,-7.95091000,0.13841040,0.00756644
-0.90181863,-3.79859700,-7.72022600,-0.27682080,0.00805856
-0.82181863,-3.49101900,-7.44340500,-1.30720900,0.00839690
-0.74181863,-3.10654500,-7.13582600,-3.06040800,0.00855069
-0.66181863,-2.67593500,-6.78211100,-5.47490100,0.00858145
-0.58181863,-2.21456700,-6.39763700,-8.12007800,0.00851993
-0.50181863,-1.73782000,-5.99778500,-10.33464000,0.00836614
-0.42181863,-1.27645200,-5.55179600,-11.05746000,0.00821235
-0.34181863,-0.86122040,-5.09042800,-9.16584600,0.00805856
-0.26181862,-0.47674700,-4.62906000,-3.82935500,0.00793553
-0.18181862,-0.15378940,-4.15231300,5.52103800,0.00787402
-0.10181862,0.15378940,-3.69094500,19.05450000,0.00784326
-0.02181862,0.43061020,-3.26033400,36.58649000,0.00784326
0.05818138,0.72281000,-2.86048200,57.53260000,0.00787402
0.13818138,0.99963080,-2.49138800,81.03162000,0.00787402
0.21818138,1.24569400,-2.15305100,105.99160000,0.00790477
0.29818138,1.46099900,-1.79933500,131.30540000,0.00790477
0.37818138,1.49175700,-1.44562000,156.00390000,0.00787402
0.45818139,1.26107300,-1.07652500,179.22610000,0.00787402
0.53818139,0.81508360,-0.67667320,200.38750000,0.00784326
0.61818139,0.26144190,-0.23068400,219.10370000,0.00784326
0.69818139,-0.24606300,0.24606300,235.25160000,0.00787402
0.77818139,-0.58439960,0.73818890,248.84660000,0.00793553
0.85818139,-0.66129420,1.26107300,260.07320000,0.00805856
0.93818139,-0.53826270,1.76857800,269.05450000,0.00821235
1.01818139,-0.32295760,2.27608300,275.88270000,0.00836614
1.09818139,-0.33833660,2.75283000,280.51180000,0.00851993
1.17818139,-1.18417800,3.18344000,282.74170000,0.00858145
1.25818140,-3.42950300,3.52177600,282.23420000,0.00851993
1.33818140,-7.24347900,3.75246000,278.65090000,0.00830463
1.41818140,-12.54921000,3.89087100,271.60740000,0.00802781
1.49818140,-19.08526000,3.92162900,260.90360000,0.00765871
1.57818140,-26.48253000,3.86011300,246.47820000,0.00722810
1.65818140,-34.35654000,3.72170300,228.56180000,0.00676673
1.73818140,-42.46124000,3.50639700,207.63100000,0.00633612
1.81818140,-50.76587000,3.22957700,184.42420000,0.00584400
1.89818140,-59.59338000,2.89124000,159.84870000,0.00529035
1.97818141,-69.74347000,2.38373500,134.93480000,0.00449065
2.05818141,-82.15427000,1.69168300,110.72830000,0.00326034
2.13818141,-97.30253000,0.90735720,88.15206000,0.00184547
2.21818141,-115.38820000,0.23068400,67.91338000,0.00052288
2.29818141,-136.31890000,-0.12303150,50.48905000,-0.00033834
2.37818141,-159.66410000,0.03075787,36.00209000,-0.00043061
2.45818141,-184.79330000,0.76894680,24.31410000,0.00043061
2.53818141,-210.93750000,2.01464100,15.05598000,0.00209154
2.61818141,-237.37390000,3.47564000,7.68946800,0.00412156
2.69818142,-263.47200000,4.67519700,1.53789400,0.00572097
2.77818142,-289.06250000,4.76747000,-3.98314500,0.00547490
2.85818142,-314.09940000,2.92199800,-9.08895100,0.00199926
2.93818142,-338.33660000,-1.19955700,-13.79491000,-0.00525960
3.01818142,-361.51260000,-7.68946800,-17.88570000,-0.01651698
3.09818142,-383.38150000,-16.33243000,-21.08452000,-0.03140379
3.17818142,-403.63560000,-26.72859000,-23.12992000,-0.04933563
3.25818142,-421.99800000,-38.37045000,-23.83735000,-0.06945128
3.33818142,-438.25350000,-50.84276000,-23.19143000,-0.09101255
3.41818142,-452.20220000,-63.89948000,-21.34596000,-0.11355810
3.49818143,-463.79790000,-77.54060000,-18.76230000,-0.13702630
3.57818143,-473.19450000,-92.38127000,-15.97871000,-0.16218630
3.65818143,-480.57640000,-109.08280000,-13.25664000,-0.18999140
3.73818143,-485.98970000,-128.01430000,-10.81139000,-0.22105680
3.81818143,-489.38850000,-149.31410000,-8.73523500,-0.25578250
3.89818143,-490.66490000,-172.85920000,-7.02817400,-0.29422980
3.97818143,-489.71150000,-198.28060000,-5.62869100,-0.33599900
4.05818143,-486.40500000,-225.00920000,-4.44451300,-0.38022880
4.13818143,-480.69940000,-252.33760000,-3.33722900,-0.42578130
4.21818144,-472.65620000,-279.54290000,-2.24532500,-0.47117990
4.29818144,-462.36770000,-305.97930000,-1.15342000,-0.51488680
4.37818144,-450.18760000,-331.32380000,-0.06151574,-0.55564100
4.45818144,-436.65410000,-355.37650000,1.04576800,-0.59221210
4.53818144,-422.27480000,-377.82970000,2.19918800,-0.62355430
4.61818144,-407.49570000,-398.42210000,3.35260800,-0.64880660
4.69818144,-392.68580000,-416.87680000,4.49065000,-0.66744580
4.77818144,-378.01430000,-433.04010000,5.61331200,-0.67928770
4.85818144,-363.52730000,-446.71200000,6.67445900,-0.68457800
4.93818145,-349.07110000,-457.78480000,7.67408900,-0.68374750
5.01818145,-334.43040000,-466.21250000,8.58144600,-0.67750370
5.09818145,-319.14370000,-471.93340000,9.39653000,-0.66661540
5.17818145,-302.94960000,-475.08610000,10.13472000,-0.65197470
5.25818145,-286.00210000,-475.77810000,10.76525000,-0.63438120
5.33818145,-268.68540000,-474.04030000,11.27276000,-0.61438850
5.41818145,-251.53790000,-469.81110000,11.64185000,-0.59227360
5.49818145,-235.06700000,-463.07510000,11.84178000,-0.56825170
5.57818145,-219.70350000,-453.78630000,11.87254000,-0.54232280
5.65818145,-205.66250000,-441.97530000,11.71875000,-0.51445620
5.73818146,-192.91340000,-427.76510000,11.41117000,-0.48471330
5.81818146,-181.19460000,-411.35580000,10.96518000,-0.45321730
5.89818146,-169.79880000,-393.03950000,10.42692000,-0.42024480
5.97818146,-158.04930000,-373.24680000,9.82714000,-0.38631890
6.05818146,-145.77690000,-352.66970000,9.22736200,-0.35239300
6.13818146,-133.05850000,-331.98510000,8.65834000,-0.31954350
6.21818146,-120.15560000,-311.77720000,8.10469900,-0.28884720
6.29818146,-107.43720000,-292.55350000,7.58181600,-0.26113440
6.37818146,-95.25713000,-274.54480000,7.08968900,-0.23695870
6.45818147,-83.89210000,-257.79710000,6.59756400,-0.21635090
6.53818147,-73.49593000,-242.12600000,6.10543700,-0.19900340
6.61818147,-64.05327000,-227.23920000,5.62869100,-0.18417810
6.69818147,-55.17962000,-212.49080000,5.15194400,-0.17067540
6.77818147,-46.55204000,-197.46550000,4.70595500,-0.15729580
6.85818147,-38.17052000,-182.20960000,4.33686000,-0.14370080
6.93818147,-30.21961000,-166.96910000,4.06003900,-0.12995200
7.01818147,-22.92999000,-152.20530000,3.92162900,-0.11638780
7.09818147,-16.54774000,-138.34890000,3.95238700,-0.10350020
7.17818148,-11.31890000,-125.79970000,4.16769200,-0.09187377
7.25818148,-7.30499500,-114.80380000,4.53678600,-0.08187746
7.33818148,-4.53678600,-105.34570000,5.02891200,-0.07366510
7.41818148,-2.82972400,-97.24101000,5.62869100,-0.06708293
7.49818148,-1.78395700,-89.87450000,6.22846900,-0.06145423
7.57818148,-1.07652500,-82.64640000,6.81286900,-0.05616388
7.65818148,-0.53826270,-75.49519000,7.28961600,-0.05099655
7.73818148,-0.16916830,-68.48240000,7.64333200,-0.04601378
7.81818148,0.01537894,-61.88484000,7.82787800,-0.04133858
7.89818148,-0.10765260,-56.01009000,7.82787800,-0.03727854
7.97818149,-0.61515740,-51.16572000,7.64333200,-0.03401821
8.05818149,-1.61478800,-47.50553000,7.28961600,-0.03174213
8.13818149,-3.07578700,-45.04490000,6.81286900,-0.03048105
8.21818149,-4.95201700,-43.58390000,6.22846900,-0.03008120
8.29818149,-7.05893100,-42.61503000,5.62869100,-0.03023499
8.37818149,-9.21198300,-41.60003000,5.02891200,-0.03048105
8.45818149,-11.28814000,-40.27744000,4.52140800,-0.03075787
8.53818149,-13.21051000,-38.55499000,4.15231300,-0.03100394
8.61818149,-14.93295000,-36.44808000,3.95238700,-0.03125000
8.69818150,-16.39395000,-34.11048000,3.95238700,-0.03155758
8.77818150,-17.60888000,-31.68061000,4.15231300,-0.03204970
8.85818150,-18.59313000,-29.32763000,4.52140800,-0.03278789
8.93818150,-19.37746000,-27.17458000,5.02891200,-0.03377214
9.01818150,-20.02337000,-25.20608000,5.62869100,-0.03497170
9.09818150,-20.57702000,-23.29909000,6.22846900,-0.03617126
9.17818150,-21.08452000,-21.22293000,6.79749000,-0.03727854
9.25818150,-21.65354000,-18.88533000,7.27423700,-0.03817052
9.33818150,-22.31484000,-16.24016000,7.61257400,-0.03878568
9.41818151,-23.09916000,-13.31816000,7.81250000,-0.03915477
9.49818151,-24.00652000,-10.16548000,7.84325700,-0.03924705
9.57818151,-25.02153000,-6.85900500,7.72022600,-0.03909326
9.65818151,-26.11343000,-3.47564000,7.47416300,-0.03875492
9.73818151,-27.22072000,-0.12303150,7.13582600,-0.03826280
9.81818151,-28.26648000,3.16806100,6.70521600,-0.03761688
9.89818151,-29.21998000,6.36687900,6.22846900,-0.03678642
9.97818151,-30.01968000,9.50418300,5.72096400,-0.03580217
10.05818151,-30.65022000,12.54921000,5.19808000,-0.03466412
10.13818151,-31.08083000,15.48659000,4.69057600,-0.03340305
10.21818152,-31.32689000,18.27018000,4.16769200,-0.03208046
10.29818152,-31.40379000,20.89997000,3.67556500,-0.03069636
10.37818152,-31.34227000,23.34522000,3.16806100,-0.02928150
10.45818152,-31.15772000,25.57517000,2.67593500,-0.02786663
10.53818152,-30.85015000,27.57443000,2.16843000,-0.02645177
10.61818152,-30.40416000,29.29687000,1.67630400,-0.02500615
10.69818152,-29.78900000,30.72711000,1.19955700,-0.02349902
10.77818152,-28.92778000,31.80364000,0.76894680,-0.02189961
10.85818152,-27.78974000,32.40342000,0.39985230,-0.02020792
10.93818153,-26.31336000,32.46494000,0.15378940,-0.01839321
11.01818153,-24.54478000,31.89591000,0.01537894,-0.01657849
11.09818153,-22.46863000,30.69636000,0.01537894,-0.01479454
11.17818153,-20.13103000,28.83550000,0.15378940,-0.01307210
11.25818153,-17.59350000,26.37487000,0.39985230,-0.01147269
11.33818153,-14.91757000,23.40674000,0.76894680,-0.00999631
11.41818153,-12.11860000,20.05413000,1.19955700,-0.00858145
11.49818153,-9.25812000,16.44008000,1.67630400,-0.00722810
11.57818153,-6.33612200,12.70300000,2.16843000,-0.00581324
11.65818153,-3.36798700,8.93516300,2.67593500,-0.00427534
