Time,Channel A,Channel B,Channel C,Channel D
(ns),(mV),(mV),(mV),(V)

-15.92727283,-3.90625000,-3.92162900,3.92162900,0.00787402
-15.84727282,-3.73708200,-3.96776600,3.92162900,0.00793553
-15.76727282,-3.44488200,-4.02928100,3.93700800,0.00805856
-15.68727282,-3.01427100,-4.10617600,3.95238700,0.00821235
-15.60727282,-2.52214600,-4.18307100,3.95238700,0.00836614
-15.52727282,-1.96850400,-4.25996500,3.95238700,0.00851993
-15.44727282,-1.43024100,-4.29072300,3.95238700,0.00858145
-15.36727282,-0.92273620,-4.27534400,3.93700800,0.00858145
-15.28727282,-0.47674700,-4.18307100,3.93700800,0.00842766
-15.20727282,-0.13841040,-4.02928100,3.92162900,0.00808932
-15.12727281,0.10765260,-3.79859700,3.90625000,0.00753568
-15.04727281,0.23068400,-3.49101900,3.89087100,0.00679749
-14.96727281,0.24606300,-3.10654500,3.84473400,0.00584400
-14.88727281,0.18454720,-2.67593500,3.78321800,0.00470596
-14.80727281,0.06151574,-2.21456700,3.72170300,0.00347564
-14.72727281,-0.06151574,-1.73782000,3.64480800,0.00224533
-14.64727281,-0.18454720,-1.27645200,3.59867100,0.00116880
-14.56727281,-0.24606300,-0.83046260,3.58329200,0.00030758
-14.48727281,-0.23068400,-0.46136810,3.64480800,-0.00018455
-14.40727280,-0.10765260,-0.13841040,3.79859700,-0.00018455
-14.32727280,0.13841040,0.12303150,4.07541800,0.00030758
-14.24727280,0.47674700,0.30757870,4.45989200,0.00135335
-14.16727280,0.92273620,0.43061020,4.95201700,0.00282972
-14.08727280,1.43024100,0.50750490,5.53641700,0.00470596
-14.00727280,1.96850400,0.53826270,6.16695300,0.00682825
-13.92727280,2.52214600,0.53826270,6.78211100,0.00898130
-13.84727280,3.01427100,0.50750490,7.32037400,0.01107283
-13.76727280,3.44488200,0.43061020,7.72022600,0.01291831
-13.68727280,3.73708200,0.30757870,7.93553100,0.01436393
-13.60727279,3.90625000,0.12303150,7.93553100,0.01537894
-13.52727279,3.90625000,-0.13841040,7.68946800,0.01587106
-13.44727279,3.73708200,-0.49212600,7.18196300,0.01587106
-13.36727279,3.44488200,-0.93811510,6.45915300,0.01544045
-13.28727279,3.01427100,-1.43024100,5.53641700,0.01464075
-13.20727279,2.52214600,-1.96850400,4.49065000,0.01356422
-13.12727279,1.96850400,-2.52214600,3.41412400,0.01233391
-13.04727279,1.43024100,-3.01427100,2.35297700,0.01107283
-12.96727279,0.92273620,-3.44488200,1.41486200,0.00990404
-12.88727278,0.49212600,-3.73708200,0.67667320,0.00891978
-12.80727278,0.13841040,-3.90625000,0.15378940,0.00815084
-12.72727278,-0.10765260,-3.90625000,-0.09227362,0.00759720
-12.64727278,-0.27682080,-3.73708200,-0.09227362,0.00728962
-12.56727278,-0.33833660,-3.44488200,0.15378940,0.00716658
-12.48727278,-0.35371550,-3.01427100,0.58439960,0.00719734
-12.40727278,-0.30757870,-2.52214600,1.12266200,0.00728962
-12.32727278,-0.23068400,-1.96850400,1.73782000,0.00744341
-12.24727278,-0.16916830,-1.43024100,2.35297700,0.00756644
-12.16727277,-0.09227362,-0.93811510,2.90661900,0.00768947
-12.08727277,-0.04613681,-0.49212600,3.38336600,0.00778174
-12.00727277,-0.01537894,-0.13841040,3.76783900,0.00781250
-11.92727277,0.00000000,0.12303150,4.06003900,0.00784326
-11.84727277,0.01537894,0.30757870,4.24458600,0.00787402
-11.76727277,0.00000000,0.43061020,4.38299700,0.00787402
-11.68727277,0.00000000,0.50750490,4.45989200,0.00790477
-11.60727277,0.00000000,0.53826270,4.49065000,0.00790477
-11.52727277,0.00000000,0.53826270,4.49065000,0.00790477
-11.44727277,0.00000000,0.50750490,4.45989200,0.00790477
-11.36727276,0.00000000,0.43061020,4.38299700,0.00787402
-11.28727276,0.00000000,0.30757870,4.24458600,0.00784326
-11.20727276,0.00000000,0.12303150,4.06003900,0.00784326
-11.12727276,0.00000000,-0.13841040,3.76783900,0.00784326
-11.04727276,0.00000000,-0.49212600,3.38336600,0.00784326
-10.96727276,0.00000000,-0.93811510,2.90661900,0.00787402
-10.88727276,0.00000000,-1.43024100,2.35297700,0.00790477
-10.80727276,0.00000000,-1.96850400,1.73782000,0.00790477
-10.72727276,0.00000000,-2.52214600,1.12266200,0.00790477
-10.64727275,0.00000000,-3.01427100,0.58439960,0.00787402
-10.56727275,0.00000000,-3.44488200,0.15378940,0.00787402
-10.48727275,0.00000000,-3.73708200,-0.09227362,0.00784326
-10.40727275,0.00000000,-3.90625000,-0.09227362,0.00784326
-10.32727275,0.00000000,-3.90625000,0.15378940,0.00787402
-10.24727275,0.00000000,-3.73708200,0.67667320,0.00793553
-10.16727275,0.00000000,-3.44488200,1.41486200,0.00805856
-10.08727275,0.00000000,-3.01427100,2.35297700,0.00821235
-10.00727275,0.00000000,-2.52214600,3.41412400,0.00836614
-9.92727274,0.00000000,-1.96850400,4.49065000,0.00851993
-9.84727274,0.00000000,-1.43024100,5.53641700,0.00858145
-9.76727274,0.00000000,-0.92273620,6.45915300,0.00855069
-9.68727274,0.00000000,-0.49212600,7.18196300,0.00839690
-9.60727274,0.00000000,-0.13841040,7.68946800,0.00805856
-9.52727274,0.00000000,0.10765260,7.93553100,0.00756644
-9.44727274,0.00000000,0.27682080,7.93553100,0.00688976
-9.36727274,0.00000000,0.33833660,7.72022600,0.00602854
-9.28727274,0.00000000,0.35371550,7.32037400,0.00501353
-9.20727274,0.00000000,0.30757870,6.78211100,0.00396777
-9.12727273,0.00000000,0.23068400,6.16695300,0.00286048
-9.04727273,0.00000000,0.15378940,5.53641700,0.00184547
-8.96727273,0.00000000,0.09227362,4.95201700,0.00098425
-8.88727273,0.01537894,0.03075787,4.45989200,0.00036909
-8.80727273,0.00000000,0.00000000,4.07541800,0.00003076
-8.72727273,-0.01537894,0.00000000,3.79859700,0.00003076
-8.64727273,-0.04613681,0.03075787,3.64480800,0.00036909
-8.56727273,-0.09227362,0.09227362,3.58329200,0.00098425
-8.48727273,-0.16916830,0.15378940,3.59867100,0.00184547
-8.40727272,-0.23068400,0.23068400,3.64480800,0.00286048
-8.32727272,-0.30757870,0.30757870,3.72170300,0.00396777
-8.24727272,-0.35371550,0.33833660,3.78321800,0.00501353
-8.16727272,-0.33833660,0.33833660,3.84473400,0.00602854
-8.08727272,-0.27682080,0.26144190,3.89087100,0.00688976
-8.00727272,-0.10765260,0.10765260,3.90625000,0.00756644
-7.92727272,0.13841040,-0.12303150,3.92162900,0.00805856
-7.84727272,0.49212600,-0.44598910,3.93700800,0.00839690
-7.76727272,0.92273620,-0.83046260,3.93700800,0.00855069
-7.68727272,1.43024100,-1.26107300,3.95238700,0.00858145
-7.60727271,1.96850400,-1.73782000,3.95238700,0.00851993
-7.52727271,2.52214600,-2.21456700,3.95238700,0.00836614
-7.44727271,3.01427100,-2.67593500,3.95238700,0.00821235
-7.36727271,3.44488200,-3.09116600,3.93700800,0.00805856
-7.28727271,3.73708200,-3.46026100,3.92162900,0.00793553
-7.20727271,3.90625000,-3.78321800,3.92162900,0.00787402
-7.12727271,3.90625000,-4.04466000,3.92162900,0.00784326
-7.04727271,3.73708200,-4.27534400,3.92162900,0.00784326
-6.96727271,3.44488200,-4.45989200,3.93700800,0.00787402
-6.88727270,3.01427100,-4.61368100,3.95238700,0.00787402
-6.80727270,2.52214600,-4.73671200,3.95238700,0.00790477
-6.72727270,1.96850400,-4.79822800,3.95238700,0.00790477
-6.64727270,1.43024100,-4.79822800,3.95238700,0.00787402
-6.56727270,0.92273620,-4.72133400,3.93700800,0.00787402
-6.48727270,0.47674700,-4.50602900,3.92162900,0.00784326
-6.40727270,0.13841040,-4.16769200,3.92162900,0.00784326
-6.32727270,-0.10765260,-3.64480800,3.92162900,0.00787402
-6.24727270,-0.23068400,-2.93737700,3.92162900,0.00793553
-6.16727269,-0.24606300,-2.07615600,3.93700800,0.00805856
-6.08727269,-0.18454720,-1.07652500,3.95238700,0.00821235
-6.00727269,-0.06151574,0.00000000,3.95238700,0.00836614
-5.92727269,0.06151574,1.09190400,3.95238700,0.00851993
-5.84727269,0.18454720,2.09153500,3.95238700,0.00858145
-5.76727269,0.24606300,2.95275600,3.93700800,0.00855069
-5.68727269,0.23068400,3.56791300,3.92162900,0.00839690
-5.60727269,0.10765260,3.89087100,3.92162900,0.00805856
-5.52727269,-0.13841040,3.87549200,3.92162900,0.00756644
-5.44727269,-0.47674700,3.52177600,3.92162900,0.00688976
-5.36727268,-0.92273620,2.84510300,3.93700800,0.00602854
-5.28727268,-1.43024100,1.93774600,3.95238700,0.00501353
-5.20727268,-1.96850400,0.84584150,3.95238700,0.00396777
-5.12727268,-2.52214600,-0.30757870,3.95238700,0.00286048
-5.04727268,-3.01427100,-1.43024100,3.95238700,0.00184547
-4.96727268,-3.44488200,-2.42987200,3.93700800,0.00098425
-4.88727268,-3.73708200,-3.22957700,3.92162900,0.00033834
-4.80727268,-3.90625000,-3.76783900,3.92162900,0.00003076
-4.72727268,-3.90625000,-3.99852300,3.92162900,0.00006152
-4.64727267,-3.73708200,-3.93700800,3.92162900,0.00046137
-4.56727267,-3.44488200,-3.59867100,3.93700800,0.00116880
-4.48727267,-3.01427100,-3.04502900,3.95238700,0.00218381
-4.40727267,-2.52214600,-2.35297700,3.95238700,0.00335261
-4.32727267,-1.96850400,-1.59940900,3.95238700,0.00455217
-4.24727267,-1.43024100,-0.90735720,3.95238700,0.00572097
-4.16727267,-0.92273620,-0.33833660,3.93700800,0.00670522
-4.08727267,-0.49212600,0.01537894,3.92162900,0.00741265
-4.00727267,-0.13841040,0.07689468,3.92162900,0.00778174
-3.92727266,0.10765260,-0.15378940,3.92162900,0.00778174
-3.84727266,0.27682080,-0.69205210,3.92162900,0.00741265
-3.76727266,0.33833660,-1.50713600,3.93700800,0.00670522
-3.68727266,0.35371550,-2.50676700,3.95238700,0.00572097
-3.60727266,0.30757870,-3.64480800,3.95238700,0.00455217
-3.52727266,0.23068400,-4.79822800,3.95238700,0.00335261
-3.44727266,0.16916830,-5.87475300,3.95238700,0.00218381
-3.36727266,0.09227362,-6.78211100,3.93700800,0.00116880
-3.28727266,0.04613681,-7.44340500,3.93700800,0.00046137
-3.20727266,0.01537894,-7.79712100,3.92162900,0.00006152
-3.12727265,0.00000000,-7.81250000,3.90625000,0.00003076
-3.04727265,-0.01537894,-7.50492100,3.89087100,0.00033834
-2.96727265,0.00000000,-6.88976300,3.84473400,0.00098425
-2.88727265,0.00000000,-6.04392200,3.78321800,0.00184547
-2.80727265,0.00000000,-5.04429100,3.72170300,0.00286048
-2.72727265,0.00000000,-3.95238700,3.64480800,0.00396777
-2.64727265,0.00000000,-2.86048200,3.59867100,0.00501353
-2.56727265,0.00000000,-1.86085100,3.58329200,0.00602854
-2.48727265,0.00000000,-0.98425190,3.64480800,0.00688976
-2.40727264,0.00000000,-0.27682080,3.79859700,0.00756644
-2.32727264,0.00000000,0.23068400,4.07541800,0.00805856
-2.24727264,0.00000000,0.58439960,4.45989200,0.00839690
-2.16727264,0.00000000,0.78432570,4.95201700,0.00855069
-2.08727264,0.00000000,0.86122040,5.53641700,0.00858145
-2.00727264,0.00000000,0.84584150,6.16695300,0.00851993
-1.92727264,0.00000000,0.78432570,6.78211100,0.00836614
-1.84727264,0.00000000,0.67667320,7.33575200,0.00821235
-1.76727264,0.00000000,0.53826270,7.78174200,0.00805856
-1.68727263,0.00000000,0.35371550,8.04318300,0.00793553
-1.60727263,0.00000000,0.13841040,7.99704600,0.00784326
-1.52727263,0.00000000,-0.15378940,7.58181600,0.00784326
-1.44727263,0.00000000,-0.50750490,6.75135300,0.00793553
-1.36727263,0.00000000,-0.93811510,5.50565900,0.00805856
-1.28727263,0.00000000,-1.43024100,3.90625000,0.00821235
-1.20727263,0.00000000,-1.96850400,2.12229300,0.00836614
-1.12727263,0.00000000,-2.52214600,0.36909450,0.00851993
-1.04727263,0.00000000,-3.01427100,-0.93811510,0.00858145
-0.96727263,0.00000000,-3.44488200,-1.44562000,0.00855069
-0.88727262,-0.01537894,-3.73708200,-1.18417800,0.00836614
-0.80727262,0.00000000,-3.90625000,-0.44598910,0.00805856
-0.72727262,0.01537894,-3.90625000,0.43061020,0.00759720
-0.64727262,0.04613681,-3.73708200,1.03038900,0.00698204
-0.56727262,0.09227362,-3.44488200,1.13804100,0.00621309
-0.48727262,0.16916830,-3.01427100,0.76894680,0.00535187
-0.40727262,0.23068400,-2.52214600,0.27682080,0.00442913
-0.32727262,0.30757870,-1.96850400,0.46136810,0.00347564
-0.24727262,0.32295760,-1.43024100,2.50676700,0.00255290
-0.16727261,0.27682080,-0.93811510,7.84325700,0.00166093
-0.08727261,0.18454720,-0.49212600,17.71653000,0.00092274
-0.00727261,0.06151574,-0.13841040,33.14161000,0.00027682
0.07272739,-0.04613681,0.12303150,54.70287000,-0.00024606
0.15272739,-0.09227362,0.30757870,82.38496000,-0.00061516
0.23272739,-0.07689468,0.43061020,115.49580000,-0.00086122
0.31272739,0.03075787,0.50750490,152.66670000,-0.00101501
0.39272739,0.15378940,0.53826270,192.00600000,-0.00107653
0.47272739,0.21530510,0.53826270,231.17620000,-0.00107653
0.55272739,-0.01537894,0.50750490,267.74730000,-0.00101501
0.63272740,-0.73818890,0.43061020,299.36640000,-0.00086122
0.71272740,-1.86085100,0.30757870,324.04960000,-0.00061516
0.79272740,-3.22957700,0.12303150,340.38200000,-0.00024606
0.87272740,-4.58292300,-0.13841040,347.65620000,0.00027682
0.95272740,-5.67482800,-0.49212600,345.91840000,0.00092274
1.03272740,-6.35150100,-0.93811510,335.90670000,0.00166093
1.11272740,-6.64370100,-1.43024100,318.95910000,0.00255290
1.19272740,-6.79749000,-1.96850400,296.79810000,0.00347564
1.27272740,-7.30499500,-2.52214600,271.29980000,0.00442913
1.35272741,-9.10433000,-3.04502900,244.27900000,0.00532111
1.43272741,-13.14899000,-3.52177600,217.31970000,0.00605930
1.51272741,-19.90034000,-3.87549200,191.60620000,0.00673597
1.59272741,-29.48142000,-3.98314500,167.89180000,0.00744341
1.67272741,-41.73843000,-3.76783900,146.48440000,0.00830463
1.75272741,-56.25615000,-3.18344000,127.29150000,0.00941191
1.83272741,-72.45016000,-2.19918800,109.97480000,0.01082677
1.91272741,-89.73609000,-0.90735720,94.07295000,0.01248770
1.99272741,-107.68330000,0.55364170,79.09387000,0.01421014
2.07272742,-126.10730000,1.98388300,64.71456000,0.01568652
2.15272742,-145.33090000,2.93737700,50.71973000,0.01630167
2.23272742,-165.84640000,3.06040800,37.23240000,0.01550197
2.31272742,-187.83830000,2.33759800,24.54478000,0.01328740
2.39272742,-211.32200000,0.89197830,13.02596000,0.00987328
2.47272742,-236.12820000,-0.96887300,3.12192400,0.00569021
2.55272742,-261.93400000,-2.96813500,-4.85974400,0.00123032
2.63272742,-288.20130000,-4.84436500,-10.74988000,-0.00313730
2.71272742,-314.33010000,-6.56680600,-14.62537000,-0.00728962
2.79272742,-339.73610000,-8.32000400,-16.76304000,-0.01153420
2.87272743,-363.85030000,-10.59609000,-17.80881000,-0.01664001
2.95272743,-386.48800000,-14.41006000,-18.39321000,-0.02408342
3.03272743,-407.52640000,-20.79232000,-18.80844000,-0.03549459
3.11272743,-426.64250000,-30.32726000,-19.17753000,-0.05179626
3.19272743,-443.54390000,-43.26095000,-19.50049000,-0.07344981
3.27272743,-457.95390000,-59.51648000,-19.65428000,-0.10042450
3.35272743,-469.61120000,-78.66325000,-19.45435000,-0.13213580
3.43272743,-478.37720000,-100.07070000,-18.74692000,-0.16756890
3.51272743,-484.19040000,-122.98540000,-17.47047000,-0.20555490
3.59272744,-487.14320000,-146.74580000,-15.65576000,-0.24483270
3.67272744,-487.43540000,-170.79850000,-13.47195000,-0.28435650
3.75272744,-485.48220000,-195.11260000,-11.19587000,-0.32360360
3.83272744,-481.77590000,-219.78040000,-8.93516300,-0.36238930
3.91272744,-476.65470000,-244.72500000,-6.78211100,-0.40031370
3.99272744,-470.33400000,-269.83880000,-4.82898600,-0.43710010
4.07272744,-462.92140000,-294.95260000,-3.06040800,-0.47250250
4.15272744,-454.40140000,-319.77420000,-1.49175700,-0.50624380
4.23272744,-444.68190000,-343.94990000,-0.06151574,-0.53795520
4.31272745,-433.63990000,-367.07980000,1.24569400,-0.56726750
4.39272745,-421.19830000,-388.68720000,2.47600900,-0.59368850
4.47272745,-407.23420000,-408.37230000,3.64480800,-0.61669530
4.55272745,-391.82450000,-425.90420000,4.73671200,-0.63591900
4.63272745,-375.41520000,-441.08330000,5.75172200,-0.65092890
4.71272745,-358.49840000,-453.58630000,6.68983700,-0.66120200
4.79272745,-341.65840000,-463.15200000,7.48954200,-0.66630780
4.87272745,-325.34140000,-469.56510000,8.15083600,-0.66590800
4.95272745,-309.87020000,-472.68700000,8.64296200,-0.65994100
5.03272745,-295.38320000,-472.50240000,8.95054100,-0.64849900
5.11272746,-281.74210000,-469.10370000,9.07357200,-0.63198200
5.19272746,-268.62390000,-462.72140000,9.05819300,-0.61103590
5.27272746,-255.38260000,-453.66320000,8.91978400,-0.58639880
5.35272746,-241.44930000,-442.40590000,8.71985600,-0.55899360
5.43272746,-226.73170000,-429.45680000,8.48917200,-0.52986590
5.51272746,-211.44500000,-415.23130000,8.24311000,-0.49993850
5.59272746,-195.95840000,-400.08300000,7.98166800,-0.46988800
5.67272746,-180.71790000,-384.22740000,7.70484700,-0.44023750
5.75272746,-166.13860000,-367.75650000,7.38188900,-0.41123280
5.83272747,-152.52830000,-350.68590000,7.02817400,-0.38287400
5.91272747,-139.97910000,-332.98470000,6.61294300,-0.35503810
5.99272747,-128.36800000,-314.62230000,6.16695300,-0.32747910
6.07272747,-117.17210000,-295.47550000,5.69020700,-0.29979700
6.15272747,-105.89940000,-275.60590000,5.21345900,-0.27183810
6.23272747,-94.50356000,-255.49030000,4.76747000,-0.24406370
6.31272747,-83.12315000,-235.68220000,4.36761800,-0.21721210
6.39272747,-72.01955000,-216.81220000,4.04466000,-0.19208290
6.47272747,-61.53112000,-199.38790000,3.82935500,-0.16947590
6.55272748,-51.95005000,-183.79370000,3.70632400,-0.14997540
6.63272748,-43.47625000,-170.13720000,3.69094500,-0.13379680
6.71272748,-36.17126000,-158.28000000,3.76783900,-0.12072470
6.79272748,-29.94279000,-147.83770000,3.89087100,-0.11026700
6.87272748,-24.42175000,-138.07210000,4.01390200,-0.10122420
6.95272748,-19.22367000,-128.32190000,4.12155500,-0.09258120
7.03272748,-14.30241000,-118.41780000,4.18307100,-0.08393824
7.11272748,-9.75024500,-108.46760000,4.15231300,-0.07526452
7.19272748,-5.70558500,-98.77891000,4.01390200,-0.06680610
7.27272748,-2.33759800,-89.70534000,3.79859700,-0.05893208
7.35272749,0.15378940,-81.61602000,3.49101900,-0.05207308
7.43272749,1.70706200,-74.72625000,3.10654500,-0.04653666
7.51272749,2.32221900,-69.11294000,2.67593500,-0.04244586
7.59272749,2.10691400,-64.62228000,2.21456700,-0.03973917
7.67272749,1.35334600,-60.71604000,1.73782000,-0.03780143
7.75272749,0.36909450,-56.88668000,1.27645200,-0.03614050
7.83272749,-0.75356790,-52.96506000,0.83046260,-0.03460261
7.91272749,-1.93774600,-48.96653000,0.46136810,-0.03315699
7.99272749,-3.22957700,-45.02953000,0.13841040,-0.03189592
8.07272750,-4.65981800,-41.35396000,-0.12303150,-0.03097318
8.15272750,-6.25922700,-38.18590000,-0.30757870,-0.03051181
8.23272750,-8.08932000,-35.63300000,-0.43061020,-0.03066560
8.31272750,-10.15010000,-33.77214000,-0.50750490,-0.03140379
8.39272750,-12.41080000,-32.48031000,-0.53826270,-0.03266486
8.47272750,-14.71764000,-31.44992000,-0.53826270,-0.03414124
8.55272750,-16.97834000,-30.31188000,-0.50750490,-0.03561762
8.63272750,-19.13140000,-28.85088000,-0.43061020,-0.03690945
8.71272750,-21.08452000,-27.02079000,-0.30757870,-0.03798597
8.79272751,-22.79158000,-24.77547000,-0.12303150,-0.03884719
8.87272751,-24.20645000,-22.22256000,0.13841040,-0.03955463
8.95272751,-25.31373000,-19.45435000,0.46136810,-0.04013903
9.03272751,-26.12881000,-16.59387000,0.83046260,-0.04066191
9.11272751,-26.66708000,-13.74877000,1.27645200,-0.04112328
9.19272751,-26.97465000,-10.98056000,1.73782000,-0.04155389
9.27272751,-27.11306000,-8.24311000,2.21456700,-0.04183071
9.35272751,-27.15920000,-5.50565900,2.67593500,-0.04183071
9.43272751,-27.17458000,-2.75283000,3.10654500,-0.04155389
9.51272751,-27.23610000,-0.03075787,3.49101900,-0.04087722
9.59272752,-27.35913000,2.62979800,3.79859700,-0.03986220
9.67272752,-27.57443000,5.18270100,4.01390200,-0.03847810
9.75272752,-27.88201000,7.56643700,4.15231300,-0.03675566
9.83272752,-28.23573000,9.76562400,4.18307100,-0.03475640
9.91272752,-28.60482000,11.74951000,4.12155500,-0.03248031
9.99272752,-28.91240000,13.50271000,4.01390200,-0.03005044
10.07272752,-29.11233000,15.07136000,3.89087100,-0.02746678
10.15272752,-29.14308000,16.45546000,3.76783900,-0.02476009
10.23272752,-28.94316000,17.63964000,3.69094500,-0.02205340
10.31272753,-28.51255000,18.59313000,3.70632400,-0.01940822
10.39272753,-27.85125000,19.33132000,3.82935500,-0.01688607
10.47272753,-27.00541000,19.83883000,4.04466000,-0.01454847
10.55272753,-26.00578000,20.11565000,4.36761800,-0.01245694
10.63272753,-24.89850000,20.17716000,4.76747000,-0.01061147
10.71272753,-23.68356000,20.00800000,5.21345900,-0.00895054
10.79272753,-22.37635000,19.63890000,5.69020700,-0.00750492
10.87272753,-20.93073000,19.02374000,6.16695300,-0.00615158
10.95272753,-19.31594000,18.11639000,6.61294300,-0.00479823
11.03272753,-17.47047000,16.85531000,7.04355200,-0.00341412
11.11272754,-15.36356000,15.16363000,7.39726800,-0.00203002
