Time,Channel A,Channel B,Channel C,Channel D
(ns),(mV),(mV),(mV),(V)

-15.67058883,-0.13841040,-3.93700800,3.92162900,-0.00021531
-15.59058882,-0.49212600,-3.96776600,3.92162900,-0.00052288
-15.51058882,-0.92273620,-4.02928100,3.93700800,-0.00067667
-15.43058882,-1.43024100,-4.10617600,3.95238700,-0.00067667
-15.35058882,-1.96850400,-4.18307100,3.95238700,-0.00061516
-15.27058882,-2.52214600,-4.25996500,3.95238700,-0.00046137
-15.19058882,-3.01427100,-4.29072300,3.95238700,-0.00030758
-15.11058882,-3.44488200,-4.27534400,3.93700800,-0.00018455
-15.03058882,-3.73708200,-4.18307100,3.92162900,-0.00006152
-14.95058882,-3.90625000,-4.02928100,3.92162900,0.00000000
-14.87058881,-3.90625000,-3.79859700,3.92162900,0.00000000
-14.79058881,-3.73708200,-3.49101900,3.92162900,-0.00006152
-14.71058881,-3.44488200,-3.10654500,3.93700800,-0.00018455
-14.63058881,-3.01427100,-2.67593500,3.95238700,-0.00030758
-14.55058881,-2.52214600,-2.21456700,3.95238700,-0.00046137
-14.47058881,-1.96850400,-1.73782000,3.95238700,-0.00061516
-14.39058881,-1.43024100,-1.26107300,3.95238700,-0.00067667
-14.31058881,-0.92273620,-0.83046260,3.93700800,-0.00067667
-14.23058881,-0.49212600,-0.44598910,3.93700800,-0.00052288
-14.15058880,-0.13841040,-0.12303150,3.92162900,-0.00021531
-14.07058880,0.10765260,0.10765260,3.90625000,0.00024606
-13.99058880,0.27682080,0.26144190,3.89087100,0.00089198
-13.91058880,0.33833660,0.33833660,3.84473400,0.00166093
-13.83058880,0.35371550,0.33833660,3.78321800,0.00252215
-13.75058880,0.30757870,0.30757870,3.72170300,0.00347564
-13.67058880,0.23068400,0.23068400,3.64480800,0.00442913
-13.59058880,0.16916830,0.16916830,3.59867100,0.00535187
-13.51058880,0.09227362,0.09227362,3.59867100,0.00621309
-13.43058880,0.04613681,0.04613681,3.66018700,0.00698204
-13.35058879,0.01537894,0.01537894,3.81397600,0.00759720
-13.27058879,0.00000000,0.00000000,4.04466000,0.00805856
-13.19058879,-0.01537894,-0.01537894,4.36761800,0.00836614
-13.11058879,0.00000000,0.00000000,4.76747000,0.00855069
-13.03058879,0.00000000,0.00000000,5.21345900,0.00858145
-12.95058879,0.00000000,0.00000000,5.69020700,0.00851993
-12.87058879,0.00000000,0.00000000,6.16695300,0.00836614
-12.79058879,0.00000000,0.00000000,6.61294300,0.00821235
-12.71058879,0.00000000,0.00000000,7.04355200,0.00805856
-12.63058878,0.00000000,-0.01537894,7.39726800,0.00793553
-12.55058878,0.00000000,0.00000000,7.70484700,0.00787402
-12.47058878,0.00000000,0.01537894,7.96628900,0.00784326
-12.39058878,0.00000000,0.04613681,8.16621500,0.00784326
-12.31058878,0.00000000,0.09227362,8.30462600,0.00787402
-12.23058878,0.00000000,0.16916830,8.39689900,0.00787402
-12.15058878,0.00000000,0.23068400,8.44303500,0.00790477
-12.07058878,0.00000000,0.30757870,8.44303500,0.00790477
-11.99058878,0.00000000,0.35371550,8.39689900,0.00790477
-11.91058877,0.00000000,0.33833660,8.30462600,0.00787402
-11.83058877,0.00000000,0.27682080,8.16621500,0.00784326
-11.75058877,0.00000000,0.10765260,7.96628900,0.00784326
-11.67058877,0.00000000,-0.13841040,7.70484700,0.00784326
-11.59058877,0.00000000,-0.49212600,7.39726800,0.00784326
-11.51058877,0.00000000,-0.92273620,7.04355200,0.00787402
-11.43058877,0.00000000,-1.43024100,6.61294300,0.00790477
-11.35058877,0.00000000,-1.96850400,6.16695300,0.00790477
-11.27058877,0.00000000,-2.52214600,5.69020700,0.00790477
-11.19058877,0.00000000,-3.02965000,5.21345900,0.00790477
-11.11058876,0.00000000,-3.44488200,4.76747000,0.00787402
-11.03058876,0.01537894,-3.75246000,4.36761800,0.00784326
-10.95058876,0.00000000,-3.90625000,4.04466000,0.00784326
-10.87058876,-0.01537894,-3.89087100,3.81397600,0.00784326
-10.79058876,-0.04613681,-3.70632400,3.66018700,0.00784326
-10.71058876,-0.09227362,-3.35260800,3.59867100,0.00787402
-10.63058876,-0.16916830,-2.86048200,3.59867100,0.00790477
-10.55058876,-0.23068400,-2.27608300,3.64480800,0.00790477
-10.47058876,-0.30757870,-1.67630400,3.72170300,0.00790477
-10.39058875,-0.35371550,-1.09190400,3.78321800,0.00790477
-10.31058875,-0.35371550,-0.59977850,3.84473400,0.00787402
-10.23058875,-0.27682080,-0.23068400,3.89087100,0.00784326
-10.15058875,-0.12303150,-0.03075787,3.90625000,0.00784326
-10.07058875,0.15378940,0.00000000,3.92162900,0.00784326
-9.99058875,0.53826270,-0.13841040,3.93700800,0.00784326
-9.91058875,1.01501000,-0.39985230,3.93700800,0.00787402
-9.83058875,1.59940900,-0.75356790,3.95238700,0.00790477
-9.75058875,2.21456700,-1.19955700,3.95238700,0.00790477
-9.67058874,2.82972400,-1.67630400,3.95238700,0.00790477
-9.59058874,3.36798700,-2.16843000,3.95238700,0.00790477
-9.51058874,3.78321800,-2.67593500,3.93700800,0.00787402
-9.43058874,4.01390200,-3.18344000,3.92162900,0.00784326
-9.35058874,4.01390200,-3.67556500,3.92162900,0.00784326
-9.27058874,3.76783900,-4.16769200,3.92162900,0.00784326
-9.19058874,3.26033400,-4.64443900,3.92162900,0.00784326
-9.11058874,2.52214600,-5.10580700,3.93700800,0.00787402
-9.03058874,1.58403000,-5.56717500,3.95238700,0.00790477
-8.95058874,0.53826270,-5.99778500,3.95238700,0.00790477
-8.87058873,-0.53826270,-6.39763700,3.95238700,0.00790477
-8.79058873,-1.59940900,-6.78211100,3.95238700,0.00790477
-8.71058873,-2.52214600,-7.13582600,3.93700800,0.00787402
-8.63058873,-3.26033400,-7.45878400,3.92162900,0.00784326
-8.55058873,-3.76783900,-7.72022600,3.92162900,0.00784326
-8.47058873,-3.99852300,-7.95091000,3.92162900,0.00784326
-8.39058873,-3.96776600,-8.10469900,3.92162900,0.00784326
-8.31058873,-3.69094500,-8.19697300,3.93700800,0.00787402
-8.23058873,-3.19881900,-8.22773100,3.95238700,0.00790477
-8.15058872,-2.58366100,-8.21235200,3.95238700,0.00790477
-8.07058872,-1.90698800,-8.13545700,3.95238700,0.00790477
-7.99058872,-1.24569400,-8.05856200,3.95238700,0.00790477
-7.91058872,-0.67667320,-7.96628900,3.93700800,0.00787402
-7.83058872,-0.26144190,-7.88939400,3.92162900,0.00784326
-7.75058872,-0.03075787,-7.84325700,3.92162900,0.00784326
-7.67058872,-0.01537894,-7.84325700,3.92162900,0.00784326
-7.59058872,-0.21530510,-7.88939400,3.92162900,0.00784326
-7.51058872,-0.58439960,-7.96628900,3.93700800,0.00787402
-7.43058872,-1.07652500,-8.05856200,3.95238700,0.00790477
-7.35058871,-1.67630400,-8.13545700,3.95238700,0.00790477
-7.27058871,-2.27608300,-8.21235200,3.95238700,0.00790477
-7.19058871,-2.86048200,-8.22773100,3.95238700,0.00790477
-7.11058871,-3.35260800,-8.19697300,3.93700800,0.00787402
-7.03058871,-3.70632400,-8.10469900,3.92162900,0.00784326
-6.95058871,-3.89087100,-7.95091000,3.92162900,0.00784326
-6.87058871,-3.90625000,-7.72022600,3.92162900,0.00784326
-6.79058871,-3.75246000,-7.45878400,3.92162900,0.00784326
-6.71058871,-3.44488200,-7.13582600,3.93700800,0.00787402
-6.63058870,-3.02965000,-6.78211100,3.95238700,0.00790477
-6.55058870,-2.52214600,-6.39763700,3.95238700,0.00790477
-6.47058870,-1.96850400,-5.99778500,3.95238700,0.00790477
-6.39058870,-1.43024100,-5.56717500,3.93700800,0.00790477
-6.31058870,-0.92273620,-5.10580700,3.93700800,0.00787402
-6.23058870,-0.49212600,-4.64443900,3.92162900,0.00784326
-6.15058870,-0.13841040,-4.16769200,3.92162900,0.00784326
-6.07058870,0.10765260,-3.67556500,3.93700800,0.00784326
-5.99058870,0.27682080,-3.18344000,3.96776600,0.00784326
-5.91058869,0.33833660,-2.67593500,4.02928100,0.00787402
-5.83058869,0.35371550,-2.16843000,4.10617600,0.00790477
-5.75058869,0.30757870,-1.67630400,4.18307100,0.00790477
-5.67058869,0.23068400,-1.19955700,4.25996500,0.00790477
-5.59058869,0.16916830,-0.75356790,4.29072300,0.00790477
-5.51058869,0.09227362,-0.39985230,4.27534400,0.00787402
-5.43058869,0.04613681,-0.13841040,4.19845000,0.00784326
-5.35058869,0.01537894,0.00000000,4.02928100,0.00784326
-5.27058869,0.00000000,-0.03075787,3.78321800,0.00784326
-5.19058869,-0.01537894,-0.23068400,3.44488200,0.00784326
-5.11058868,0.00000000,-0.59977850,3.01427100,0.00787402
-5.03058868,0.00000000,-1.09190400,2.50676700,0.00790477
-4.95058868,0.00000000,-1.67630400,1.98388300,0.00790477
-4.87058868,0.00000000,-2.27608300,1.43024100,0.00790477
-4.79058868,0.00000000,-2.86048200,0.92273620,0.00787402
-4.71058868,0.00000000,-3.35260800,0.49212600,0.00787402
-4.63058868,0.00000000,-3.70632400,0.18454720,0.00784326
-4.55058868,0.00000000,-3.89087100,0.01537894,0.00784326
-4.47058868,0.00000000,-3.90625000,0.01537894,0.00787402
-4.39058867,0.00000000,-3.75246000,0.18454720,0.00793553
-4.31058867,0.00000000,-3.44488200,0.49212600,0.00805856
-4.23058867,0.00000000,-3.02965000,0.92273620,0.00821235
-4.15058867,0.00000000,-2.52214600,1.43024100,0.00836614
-4.07058867,0.00000000,-1.96850400,1.98388300,0.00851993
-3.99058867,0.00000000,-1.43024100,2.50676700,0.00858145
-3.91058867,0.00000000,-0.92273620,3.01427100,0.00855069
-3.83058867,0.00000000,-0.49212600,3.44488200,0.00839690
-3.75058867,0.00000000,-0.13841040,3.78321800,0.00805856
-3.67058866,0.00000000,0.10765260,4.02928100,0.00756644
-3.59058866,0.00000000,0.27682080,4.19845000,0.00688976
-3.51058866,0.00000000,0.33833660,4.27534400,0.00602854
-3.43058866,0.00000000,0.35371550,4.29072300,0.00501353
-3.35058866,0.00000000,0.30757870,4.25996500,0.00396777
-3.27058866,0.00000000,0.23068400,4.18307100,0.00286048
-3.19058866,0.00000000,0.15378940,4.10617600,0.00184547
-3.11058866,0.00000000,0.09227362,4.02928100,0.00098425
-3.03058866,-0.01537894,0.03075787,3.96776600,0.00036909
-2.95058866,0.00000000,0.00000000,3.93700800,0.00003076
-2.87058865,0.01537894,0.00000000,3.92162900,0.00003076
-2.79058865,0.04613681,0.03075787,3.92162900,0.00036909
-2.71058865,0.09227362,0.09227362,3.93700800,0.00098425
-2.63058865,0.16916830,0.15378940,3.93700800,0.00184547
-2.55058865,0.23068400,0.23068400,3.95238700,0.00286048
-2.47058865,0.30757870,0.30757870,3.95238700,0.00396777
-2.39058865,0.35371550,0.33833660,3.93700800,0.00501353
-2.31058865,0.33833660,0.32295760,3.93700800,0.00602854
-2.23058865,0.27682080,0.24606300,3.92162900,0.00688976
-2.15058864,0.10765260,0.10765260,3.92162900,0.00756644
-2.07058864,-0.13841040,-0.12303150,3.93700800,0.00805856
-1.99058864,-0.49212600,-0.39985230,3.96776600,0.00839690
-1.91058864,-0.92273620,-0.73818890,4.02928100,0.00855069
-1.83058864,-1.43024100,-1.10728300,4.10617600,0.00858145
-1.75058864,-1.96850400,-1.50713600,4.18307100,0.00851993
-1.67058864,-2.52214600,-1.90698800,4.25996500,0.00836614
-1.59058864,-3.01427100,-2.33759800,4.32148100,0.00821235
-1.51058864,-3.44488200,-2.76820900,4.38299700,0.00805856
-1.43058863,-3.73708200,-3.21419800,4.35223900,0.00793553
-1.35058863,-3.90625000,-3.67556500,4.13693400,0.00787402
-1.27058863,-3.90625000,-4.16769200,3.62942900,0.00784326
-1.19058863,-3.73708200,-4.67519700,2.75283000,0.00784326
-1.11058863,-3.44488200,-5.19808000,1.49175700,0.00787402
-1.03058863,-3.01427100,-5.72096400,-0.07689468,0.00787402
-0.95058863,-2.52214600,-6.22846900,-1.81471400,0.00790477
-0.87058863,-1.96850400,-6.70521600,-3.42950300,0.00790477
-0.79058863,-1.43024100,-7.13582600,-4.44451300,0.00787402
-0.71058863,-0.93811510,-7.47416300,-4.38299700,0.00787402
-0.63058862,-0.49212600,-7.72022600,-3.26033400,0.00784326
-0.55058862,-0.13841040,-7.82787800,-1.24569400,0.00784326
-0.47058862,0.12303150,-7.81250000,1.32258800,0.00787402
-0.39058862,0.30757870,-7.65871000,4.06003900,0.00793553
-0.31058862,0.43061020,-7.36651000,6.65908000,0.00805856
-0.23058862,0.50750490,-6.96665800,9.04281500,0.00821235
-0.15058862,0.53826270,-6.47453200,11.48807000,0.00836614
-0.07058862,0.53826270,-5.92089000,14.59461000,0.00851993
0.00941138,0.49212600,-5.38262700,19.40822000,0.00858145
0.08941139,0.35371550,-4.85974400,27.18996000,0.00855069
0.16941139,0.19992620,-4.41375400,39.09325000,0.00836614
0.24941139,0.04613681,-4.06003900,56.08698000,0.00805856
0.32941139,-0.03075787,-3.81397600,78.72478000,0.00759720
0.40941139,0.01537894,-3.66018700,107.00660000,0.00698204
0.48941139,0.21530510,-3.59867100,140.31740000,0.00621309
0.56941139,0.52288380,-3.59867100,177.33450000,0.00535187
0.64941139,0.86122040,-3.64480800,216.19710000,0.00442913
0.72941139,1.13804100,-3.72170300,254.62900000,0.00347564
0.80941139,1.01501000,-3.78321800,290.15440000,0.00252215
0.88941140,0.24606300,-3.84473400,320.38940000,0.00166093
0.96941140,-1.12266200,-3.89087100,343.28860000,0.00089198
1.04941140,-2.93737700,-3.92162900,357.39110000,0.00024606
1.12941140,-4.92125900,-3.92162900,361.91250000,-0.00021531
1.20941140,-6.79749000,-3.89087100,356.88360000,-0.00052288
1.28941140,-8.36614100,-3.84473400,343.08870000,-0.00067667
1.36941140,-9.64259300,-3.78321800,321.97340000,-0.00067667
1.44941140,-10.82677000,-3.72170300,295.41400000,-0.00061516
1.52941140,-12.42618000,-3.64480800,265.48660000,-0.00046137
1.60941141,-15.40969000,-3.62942900,234.28270000,-0.00036909
1.68941141,-20.76156000,-3.70632400,203.58640000,-0.00036909
1.76941141,-28.98929000,-3.82935500,174.85850000,-0.00036909
1.84941141,-40.29281000,-3.90625000,148.99110000,-0.00021531
1.92941141,-54.53371000,-3.89087100,126.41490000,0.00030758
2.00941141,-71.26599000,-3.67556500,107.05280000,0.00132259
2.08941141,-89.88988000,-3.24495600,90.50504000,0.00286048
2.16941141,-109.75950000,-2.61441900,76.15649000,0.00485974
2.24941141,-130.33650000,-1.90698800,63.31508000,0.00710507
2.32941142,-151.26720000,-1.29183100,51.36565000,0.00913509
2.40941142,-172.75160000,-1.23031500,39.90834000,0.01011934
2.48941142,-195.12790000,-2.06077700,28.80475000,0.00938115
2.56941142,-218.42700000,-3.82935500,18.19328000,0.00679749
2.64941142,-242.60270000,-6.36687900,8.39689900,0.00258366
2.72941142,-267.43970000,-9.39653000,-0.19992620,-0.00279897
2.80941142,-292.58430000,-12.59535000,-7.25885800,-0.00876599
2.88941142,-317.57500000,-15.70189000,-12.56459000,-0.01485605
2.96941142,-341.91990000,-18.62389000,-16.07099000,-0.02085384
3.04941142,-365.12670000,-21.57665000,-18.00873000,-0.02703617
3.12941143,-386.79560000,-25.00615000,-18.90071000,-0.03417200
3.20941143,-406.84980000,-29.95817000,-19.34670000,-0.04389149
3.28941143,-425.27370000,-37.47847000,-19.59276000,-0.05791708
3.36941143,-441.88300000,-48.16683000,-19.71580000,-0.07732529
3.44941143,-456.41610000,-62.26931000,-19.70042000,-0.10270050
3.52941143,-468.65770000,-79.72440000,-19.43897000,-0.13407360
3.60941143,-478.39260000,-100.11690000,-18.77768000,-0.17086000
3.68941143,-485.43610000,-122.78540000,-17.60888000,-0.21198330
3.76941143,-489.71150000,-146.93040000,-15.87106000,-0.25602850
3.84941144,-491.24940000,-171.84420000,-13.61036000,-0.30148870
3.92941144,-490.15740000,-196.91190000,-11.02670000,-0.34701030
4.00941144,-486.83560000,-222.04110000,-8.35076200,-0.39167080
4.08941144,-481.68370000,-247.27790000,-5.73634300,-0.43494710
4.16941144,-475.07070000,-272.46860000,-3.27571300,-0.47622420
4.24941144,-467.19670000,-297.49010000,-1.03038900,-0.51504060
4.32941144,-458.23080000,-322.12720000,0.98425190,-0.55111960
4.40941144,-448.18830000,-346.10300000,2.78358700,-0.58418430
4.48941144,-437.03860000,-369.12520000,4.39837600,-0.61408100
4.56941145,-424.68930000,-390.79410000,5.85937500,-0.64053270
4.64941145,-411.04820000,-410.72530000,7.21272100,-0.66326280
4.72941145,-395.99220000,-428.58020000,8.42765700,-0.68193280
4.80941145,-379.55210000,-444.17440000,9.53494100,-0.69623520
4.88941145,-362.12780000,-457.40030000,10.45768000,-0.70580100
4.96941145,-344.24210000,-468.01180000,11.18049000,-0.71019930
5.04941145,-326.43330000,-475.77810000,11.64185000,-0.70890750
5.12941145,-309.19350000,-480.51490000,11.81102000,-0.70161780
5.20941145,-292.84570000,-482.08350000,11.62648000,-0.68823820
5.28941145,-277.54360000,-480.46870000,11.11897000,-0.66892220
5.36941146,-263.17970000,-475.74740000,10.31927000,-0.64416220
5.44941146,-249.46170000,-468.15020000,9.28887700,-0.61481920
5.52941146,-235.74370000,-457.93860000,8.13545700,-0.58184670
5.60941146,-221.47210000,-445.55850000,6.96665800,-0.54656740
5.68941146,-206.60060000,-431.56370000,5.89013200,-0.51036540
5.76941146,-191.34470000,-416.40010000,4.95201700,-0.47453250
5.84941146,-176.11960000,-400.43670000,4.21382900,-0.44008370
5.92941146,-161.38660000,-383.93510000,3.67556500,-0.40772640
6.00941146,-147.56090000,-367.01830000,3.33722900,-0.37779900
6.08941147,-134.93480000,-349.71700000,3.15268200,-0.35020910
6.16941147,-123.55440000,-331.96970000,3.09116600,-0.32458790
6.24941147,-113.26590000,-313.71490000,3.10654500,-0.30031990
6.32941147,-103.51560000,-294.76810000,3.16806100,-0.27660550
6.40941147,-93.70386000,-275.12920000,3.27571300,-0.25273750
6.48941147,-83.72293000,-255.21350000,3.39874500,-0.22886930
6.56941147,-73.64972000,-235.55920000,3.56791300,-0.20540110
6.64941147,-63.68418000,-216.78150000,3.78321800,-0.18310160
6.72941147,-54.11848000,-199.40330000,4.07541800,-0.16264760
6.80941148,-45.24483000,-183.82440000,4.42913300,-0.14465430
6.88941148,-37.24778000,-170.15250000,4.87512300,-0.12952140
6.96941148,-30.26575000,-158.28000000,5.38262700,-0.11715670
7.04941148,-24.22182000,-147.83770000,5.92089000,-0.10719120
7.12941148,-18.82382000,-138.07210000,6.47453200,-0.09857899
7.20941148,-13.79491000,-128.32190000,6.96665800,-0.09033588
7.28941148,-9.13508800,-118.41780000,7.36651000,-0.08215428
7.36941148,-4.95201700,-108.46760000,7.65871000,-0.07409572
7.44941148,-1.44562000,-98.77891000,7.81250000,-0.06637549
7.52941148,1.19955700,-89.70534000,7.82787800,-0.05939345
7.60941149,2.82972400,-81.61602000,7.72022600,-0.05351870
7.68941149,3.38336600,-74.72625000,7.47416300,-0.04902805
7.76941149,2.89124000,-69.11294000,7.13582600,-0.04598302
7.84941149,1.56865100,-64.62228000,6.70521600,-0.04429134
7.92941149,-0.26144190,-60.71604000,6.22846900,-0.04330709
8.00941149,-2.22994600,-56.88668000,5.72096400,-0.04250738
8.08941149,-4.13693400,-52.96506000,5.19808000,-0.04167692
8.16941149,-5.84399600,-48.96653000,4.69057600,-0.04075418
8.24941149,-7.24347900,-45.02953000,4.16769200,-0.03970842
8.32941150,-8.36614100,-41.36934000,3.67556500,-0.03875492
8.40941150,-9.24274100,-38.21666000,3.16806100,-0.03798597
8.48941150,-9.91941400,-35.74065000,2.67593500,-0.03752461
8.56941150,-10.50381000,-33.94131000,2.16843000,-0.03743233
8.64941150,-11.04208000,-32.72638000,1.67630400,-0.03770915
8.72941150,-11.59572000,-31.75750000,1.19955700,-0.03810900
8.80941150,-12.19550000,-30.65022000,0.76894680,-0.03847810
8.88941150,-12.93369000,-29.18922000,0.39985230,-0.03875492
8.96941150,-13.87180000,-27.26685000,0.13841040,-0.03897022
9.04941151,-15.02522000,-24.88312000,0.01537894,-0.03915477
9.12941151,-16.40932000,-22.09953000,0.03075787,-0.03930856
9.20941151,-17.99336000,-19.05450000,0.19992620,-0.03952387
9.28941151,-19.73118000,-15.85568000,0.50750490,-0.03976993
9.36941151,-21.54589000,-12.64149000,0.92273620,-0.04010827
9.44941151,-23.37598000,-9.47342500,1.43024100,-0.04047736
9.52941151,-25.14456000,-6.33612200,1.98388300,-0.04075418
9.60941151,-26.80548000,-3.18344000,2.50676700,-0.04081570
9.68941151,-28.32800000,0.00000000,3.01427100,-0.04066191
9.76941151,-29.68135000,3.16806100,3.44488200,-0.04026206
9.84941152,-30.85015000,6.30536400,3.78321800,-0.03961614
9.92941152,-31.86516000,9.35039300,4.02928100,-0.03878568
10.00941152,-32.71100000,12.28777000,4.19845000,-0.03777067
10.08941152,-33.38767000,15.05598000,4.27534400,-0.03660187
10.16941152,-33.91056000,17.62426000,4.29072300,-0.03534080
10.24941152,-34.24889000,19.97724000,4.25996500,-0.03398745
10.32941152,-34.38730000,22.08415000,4.18307100,-0.03248031
10.40941152,-34.26427000,23.92962000,4.10617600,-0.03081939
10.48941152,-33.84904000,25.45214000,4.02928100,-0.02891240
10.56941153,-33.09547000,26.59018000,3.96776600,-0.02688238
10.64941153,-32.03432000,27.28223000,3.93700800,-0.02466781
10.72941153,-30.65022000,27.51292000,3.92162900,-0.02239173
10.80941153,-28.97392000,27.28223000,3.92162900,-0.02002338
10.88941153,-27.05155000,26.62094000,3.93700800,-0.01768578
10.96941153,-24.91388000,25.54441000,3.93700800,-0.01531742
11.04941153,-22.60704000,24.12955000,3.95238700,-0.01301058
11.12941153,-20.16179000,22.42249000,3.95238700,-0.01070374
11.20941153,-17.56274000,20.46936000,3.93700800,-0.00833538
11.28941153,-14.84067000,18.25480000,3.93700800,-0.00593627
