Time,Channel A,Channel B,Channel C,Channel D
(ns),(mV),(mV),(mV),(V)

-15.48799983,0.12303150,-7.84325700,4.07541800,0.00805856
-15.40799982,0.30757870,-7.72022600,4.45989200,0.00836614
-15.32799982,0.43061020,-7.47416300,4.95201700,0.00855069
-15.24799982,0.50750490,-7.13582600,5.53641700,0.00858145
-15.16799982,0.53826270,-6.70521600,6.16695300,0.00851993
-15.08799982,0.53826270,-6.22846900,6.78211100,0.00836614
-15.00799982,0.50750490,-5.72096400,7.32037400,0.00821235
-14.92799982,0.44598910,-5.19808000,7.72022600,0.00805856
-14.84799982,0.32295760,-4.67519700,7.93553100,0.00793553
-14.76799982,0.12303150,-4.16769200,7.93553100,0.00787402
-14.68799981,-0.15378940,-3.67556500,7.68946800,0.00784326
-14.60799981,-0.53826270,-3.21419800,7.18196300,0.00784326
-14.52799981,-1.03038900,-2.76820900,6.45915300,0.00787402
-14.44799981,-1.59940900,-2.33759800,5.53641700,0.00787402
-14.36799981,-2.21456700,-1.90698800,4.49065000,0.00790477
-14.28799981,-2.82972400,-1.50713600,3.41412400,0.00790477
-14.20799981,-3.36798700,-1.10728300,2.35297700,0.00787402
-14.12799981,-3.78321800,-0.73818890,1.41486200,0.00787402
-14.04799981,-4.01390200,-0.39985230,0.67667320,0.00784326
-13.96799980,-4.01390200,-0.12303150,0.15378940,0.00784326
-13.88799980,-3.76783900,0.10765260,-0.09227362,0.00787402
-13.80799980,-3.26033400,0.24606300,-0.09227362,0.00793553
-13.72799980,-2.52214600,0.32295760,0.15378940,0.00805856
-13.64799980,-1.58403000,0.33833660,0.58439960,0.00821235
-13.56799980,-0.53826270,0.30757870,1.12266200,0.00836614
-13.48799980,0.53826270,0.23068400,1.73782000,0.00851993
-13.40799980,1.58403000,0.15378940,2.35297700,0.00858145
-13.32799980,2.52214600,0.09227362,2.92199800,0.00855069
-13.24799980,3.26033400,0.03075787,3.41412400,0.00836614
-13.16799979,3.76783900,0.00000000,3.78321800,0.00805856
-13.08799979,4.01390200,0.00000000,4.02928100,0.00759720
-13.00799979,4.01390200,0.03075787,4.16769200,0.00698204
-12.92799979,3.78321800,0.09227362,4.18307100,0.00621309
-12.84799979,3.36798700,0.15378940,4.13693400,0.00535187
-12.76799979,2.82972400,0.23068400,4.01390200,0.00442913
-12.68799979,2.21456700,0.30757870,3.89087100,0.00347564
-12.60799979,1.58403000,0.33833660,3.76783900,0.00252215
-12.52799979,1.01501000,0.33833660,3.69094500,0.00166093
-12.44799978,0.52288380,0.26144190,3.70632400,0.00089198
-12.36799978,0.13841040,0.10765260,3.81397600,0.00024606
-12.28799978,-0.10765260,-0.12303150,4.06003900,-0.00021531
-12.20799978,-0.23068400,-0.44598910,4.39837600,-0.00052288
-12.12799978,-0.24606300,-0.83046260,4.85974400,-0.00067667
-12.04799978,-0.18454720,-1.26107300,5.36724900,-0.00067667
-11.96799978,-0.06151574,-1.73782000,5.92089000,-0.00061516
-11.88799978,0.06151574,-2.21456700,6.47453200,-0.00046137
-11.80799978,0.18454720,-2.67593500,6.96665800,-0.00033834
-11.72799977,0.24606300,-3.10654500,7.38188900,-0.00018455
-11.64799977,0.23068400,-3.49101900,7.67408900,-0.00009227
-11.56799977,0.10765260,-3.79859700,7.82787800,-0.00003076
-11.48799977,-0.13841040,-4.02928100,7.82787800,0.00000000
-11.40799977,-0.47674700,-4.18307100,7.67408900,0.00003076
-11.32799977,-0.92273620,-4.27534400,7.38188900,0.00000000
-11.24799977,-1.43024100,-4.29072300,6.96665800,0.00000000
-11.16799977,-1.96850400,-4.25996500,6.47453200,0.00000000
-11.08799977,-2.52214600,-4.18307100,5.92089000,0.00000000
-11.00799977,-3.01427100,-4.10617600,5.38262700,0.00000000
-10.92799976,-3.42950300,-4.02928100,4.85974400,0.00000000
-10.84799976,-3.73708200,-3.96776600,4.41375400,0.00003076
-10.76799976,-3.89087100,-3.92162900,4.06003900,0.00000000
-10.68799976,-3.90625000,-3.92162900,3.81397600,-0.00003076
-10.60799976,-3.78321800,-3.96776600,3.66018700,-0.00009227
-10.52799976,-3.53715500,-4.02928100,3.59867100,-0.00018455
-10.44799976,-3.18344000,-4.10617600,3.59867100,-0.00033834
-10.36799976,-2.75283000,-4.18307100,3.64480800,-0.00046137
-10.28799976,-2.27608300,-4.25996500,3.72170300,-0.00061516
-10.20799975,-1.78395700,-4.29072300,3.78321800,-0.00067667
-10.12799975,-1.27645200,-4.27534400,3.84473400,-0.00067667
-10.04799975,-0.76894680,-4.18307100,3.89087100,-0.00052288
-9.96799975,-0.26144190,-4.02928100,3.90625000,-0.00021531
-9.88799975,0.26144190,-3.79859700,3.92162900,0.00024606
-9.80799975,0.79970470,-3.49101900,3.93700800,0.00089198
-9.72799975,1.36872500,-3.10654500,3.93700800,0.00166093
-9.64799975,1.93774600,-2.67593500,3.95238700,0.00252215
-9.56799975,2.52214600,-2.21456700,3.95238700,0.00347564
-9.48799974,3.06040800,-1.73782000,3.95238700,0.00442913
-9.40799974,3.53715500,-1.26107300,3.95238700,0.00535187
-9.32799974,3.87549200,-0.83046260,3.93700800,0.00621309
-9.24799974,4.06003900,-0.44598910,3.92162900,0.00695128
-9.16799974,4.02928100,-0.12303150,3.92162900,0.00756644
-9.08799974,3.75246000,0.10765260,3.92162900,0.00808932
-9.00799974,3.24495600,0.26144190,3.92162900,0.00845842
-8.92799974,2.50676700,0.33833660,3.93700800,0.00873524
-8.84799974,1.58403000,0.33833660,3.95238700,0.00888903
-8.76799974,0.53826270,0.30757870,3.95238700,0.00898130
-8.68799973,-0.53826270,0.23068400,3.95238700,0.00898130
-8.60799973,-1.59940900,0.16916830,3.93700800,0.00891978
-8.52799973,-2.52214600,0.09227362,3.93700800,0.00873524
-8.44799973,-3.26033400,0.04613681,3.92162900,0.00848917
-8.36799973,-3.76783900,0.01537894,3.92162900,0.00808932
-8.28799973,-3.99852300,0.00000000,3.93700800,0.00756644
-8.20799973,-3.96776600,-0.01537894,3.96776600,0.00685901
-8.12799973,-3.69094500,0.00000000,4.02928100,0.00599779
-8.04799973,-3.19881900,0.00000000,4.10617600,0.00501353
-7.96799972,-2.58366100,0.00000000,4.18307100,0.00396777
-7.88799972,-1.90698800,0.00000000,4.25996500,0.00286048
-7.80799972,-1.24569400,0.00000000,4.29072300,0.00184547
-7.72799972,-0.67667320,0.00000000,4.27534400,0.00098425
-7.64799972,-0.26144190,-0.01537894,4.18307100,0.00036909
-7.56799972,-0.03075787,0.00000000,4.02928100,0.00003076
-7.48799972,-0.01537894,0.01537894,3.79859700,0.00003076
-7.40799972,-0.21530510,0.04613681,3.49101900,0.00036909
-7.32799972,-0.58439960,0.09227362,3.10654500,0.00098425
-7.24799972,-1.07652500,0.16916830,2.67593500,0.00184547
-7.16799971,-1.67630400,0.23068400,2.21456700,0.00286048
-7.08799971,-2.27608300,0.30757870,1.73782000,0.00396777
-7.00799971,-2.86048200,0.35371550,1.27645200,0.00501353
-6.92799971,-3.35260800,0.33833660,0.83046260,0.00602854
-6.84799971,-3.70632400,0.27682080,0.46136810,0.00688976
-6.76799971,-3.89087100,0.10765260,0.13841040,0.00756644
-6.68799971,-3.90625000,-0.13841040,-0.12303150,0.00805856
-6.60799971,-3.75246000,-0.49212600,-0.30757870,0.00839690
-6.52799971,-3.44488200,-0.92273620,-0.43061020,0.00855069
-6.44799970,-3.02965000,-1.43024100,-0.50750490,0.00858145
-6.36799970,-2.52214600,-1.96850400,-0.53826270,0.00851993
-6.28799970,-1.96850400,-2.52214600,-0.53826270,0.00836614
-6.20799970,-1.43024100,-3.02965000,-0.50750490,0.00821235
-6.12799970,-0.92273620,-3.44488200,-0.43061020,0.00805856
-6.04799970,-0.49212600,-3.75246000,-0.30757870,0.00793553
-5.96799970,-0.13841040,-3.90625000,-0.12303150,0.00787402
-5.88799970,0.10765260,-3.89087100,0.13841040,0.00784326
-5.80799970,0.27682080,-3.70632400,0.46136810,0.00784326
-5.72799969,0.33833660,-3.35260800,0.83046260,0.00787402
-5.64799969,0.35371550,-2.86048200,1.27645200,0.00787402
-5.56799969,0.30757870,-2.27608300,1.73782000,0.00790477
-5.48799969,0.23068400,-1.67630400,2.21456700,0.00790477
-5.40799969,0.16916830,-1.09190400,2.67593500,0.00787402
-5.32799969,0.09227362,-0.58439960,3.10654500,0.00787402
-5.24799969,0.04613681,-0.23068400,3.49101900,0.00784326
-5.16799969,0.01537894,-0.03075787,3.79859700,0.00784326
-5.08799969,0.00000000,-0.01537894,4.02928100,0.00787402
-5.00799969,-0.01537894,-0.16916830,4.18307100,0.00793553
-4.92799968,0.00000000,-0.49212600,4.27534400,0.00805856
-4.84799968,0.00000000,-0.92273620,4.29072300,0.00821235
-4.76799968,0.00000000,-1.43024100,4.25996500,0.00836614
-4.68799968,0.00000000,-1.98388300,4.18307100,0.00851993
-4.60799968,0.00000000,-2.50676700,4.10617600,0.00858145
-4.52799968,0.00000000,-3.01427100,4.02928100,0.00855069
-4.44799968,0.00000000,-3.44488200,3.96776600,0.00836614
-4.36799968,0.00000000,-3.78321800,3.93700800,0.00805856
-4.28799968,0.00000000,-4.02928100,3.92162900,0.00759720
-4.20799967,0.00000000,-4.19845000,3.92162900,0.00698204
-4.12799967,0.00000000,-4.27534400,3.93700800,0.00621309
-4.04799967,0.00000000,-4.29072300,3.93700800,0.00535187
-3.96799967,0.00000000,-4.25996500,3.95238700,0.00442913
-3.88799967,0.00000000,-4.18307100,3.95238700,0.00347564
-3.80799967,0.00000000,-4.10617600,3.93700800,0.00255290
-3.72799967,0.00000000,-4.02928100,3.93700800,0.00166093
-3.64799967,0.00000000,-3.96776600,3.92162900,0.00092274
-3.56799967,0.00000000,-3.93700800,3.92162900,0.00027682
-3.48799966,0.00000000,-3.92162900,3.93700800,-0.00024606
-3.40799966,0.00000000,-3.92162900,3.96776600,-0.00061516
-3.32799966,0.00000000,-3.93700800,4.02928100,-0.00086122
-3.24799966,0.00000000,-3.93700800,4.10617600,-0.00101501
-3.16799966,0.00000000,-3.95238700,4.18307100,-0.00107653
-3.08799966,0.00000000,-3.95238700,4.25996500,-0.00107653
-3.00799966,0.00000000,-3.93700800,4.29072300,-0.00101501
-2.92799966,0.00000000,-3.93700800,4.27534400,-0.00086122
-2.84799966,-0.01537894,-3.92162900,4.19845000,-0.00061516
-2.76799966,0.00000000,-3.92162900,4.02928100,-0.00024606
-2.68799965,0.01537894,-3.93700800,3.78321800,0.00027682
-2.60799965,0.04613681,-3.96776600,3.44488200,0.00098425
-2.52799965,0.09227362,-4.02928100,3.01427100,0.00187623
-2.44799965,0.16916830,-4.10617600,2.50676700,0.00286048
-2.36799965,0.23068400,-4.18307100,1.98388300,0.00393701
-2.28799965,0.30757870,-4.25996500,1.43024100,0.00504429
-2.20799965,0.33833660,-4.29072300,0.92273620,0.00605930
-2.12799965,0.33833660,-4.27534400,0.49212600,0.00688976
-2.04799965,0.26144190,-4.18307100,0.18454720,0.00750492
-1.96799964,0.10765260,-4.02928100,0.01537894,0.00781250
-1.88799964,-0.12303150,-3.79859700,0.01537894,0.00778174
-1.80799964,-0.44598910,-3.49101900,0.18454720,0.00741265
-1.72799964,-0.83046260,-3.10654500,0.49212600,0.00670522
-1.64799964,-1.26107300,-2.67593500,0.92273620,0.00572097
-1.56799964,-1.73782000,-2.21456700,1.43024100,0.00455217
-1.48799964,-2.21456700,-1.73782000,1.98388300,0.00335261
-1.40799964,-2.67593500,-1.26107300,2.56828200,0.00218381
-1.32799964,-3.10654500,-0.83046260,3.16806100,0.00116880
-1.24799963,-3.47564000,-0.44598910,3.67556500,0.00043061
-1.16799963,-3.78321800,-0.12303150,3.93700800,0.00006152
-1.08799963,-4.04466000,0.10765260,3.78321800,0.00006152
-1.00799963,-4.22920700,0.26144190,3.12192400,0.00043061
-0.92799963,-4.36761800,0.33833660,1.90698800,0.00116880
-0.84799963,-4.44451300,0.33833660,0.23068400,0.00218381
-0.76799963,-4.49065000,0.30757870,-1.66092500,0.00335261
-0.68799963,-4.49065000,0.23068400,-3.41412400,0.00455217
-0.60799963,-4.45989200,0.15378940,-4.38299700,0.00572097
-0.52799963,-4.36761800,0.09227362,-3.95238700,0.00670522
-0.44799962,-4.24458600,0.03075787,-1.93774600,0.00741265
-0.36799962,-4.04466000,0.00000000,1.63016700,0.00778174
-0.28799962,-3.78321800,0.00000000,6.50529000,0.00781250
-0.20799962,-3.42950300,0.03075787,12.31853000,0.00750492
-0.12799962,-2.99889300,0.09227362,18.70079000,0.00688976
-0.04799962,-2.50676700,0.15378940,25.43676000,0.00605930
0.03200038,-1.98388300,0.23068400,32.48031000,0.00504429
0.11200038,-1.43024100,0.30757870,40.13902000,0.00393701
0.19200038,-0.95349410,0.33833660,49.05881000,0.00286048
0.27200039,-0.59977850,0.33833660,60.07012000,0.00184547
0.35200039,-0.33833660,0.26144190,74.01881000,0.00098425
0.43200039,-0.12303150,0.10765260,91.64308000,0.00027682
0.51200039,0.13841040,-0.12303150,113.38890000,-0.00021531
0.59200039,0.50750490,-0.44598910,139.27160000,-0.00055364
0.67200039,1.03038900,-0.83046260,168.83000000,-0.00067667
0.75200039,1.67630400,-1.26107300,201.01810000,-0.00070743
0.83200039,2.35297700,-1.73782000,234.29810000,-0.00061516
0.91200039,2.89124000,-2.21456700,266.73230000,-0.00046137
0.99200039,2.89124000,-2.67593500,296.22910000,-0.00033834
1.07200040,1.99926200,-3.12192400,320.66620000,-0.00021531
1.15200040,0.18454720,-3.50639700,338.27510000,-0.00009227
1.23200040,-2.41449300,-3.81397600,347.70240000,-0.00003076
1.31200040,-5.53641700,-4.01390200,348.24060000,0.00003076
1.39200040,-8.88902600,-4.10617600,339.90520000,0.00009227
1.47200040,-12.24163000,-4.07541800,323.40360000,0.00021531
1.55200040,-15.50197000,-3.96776600,300.10460000,0.00033834
1.63200040,-18.80844000,-3.78321800,271.76120000,0.00046137
1.71200040,-22.57628000,-3.58329200,240.41890000,0.00061516
1.79200041,-27.74360000,-3.46026100,208.07700000,0.00061516
1.87200041,-35.24852000,-3.50639700,176.56560000,0.00043061
1.95200041,-45.58317000,-3.66018700,147.34560000,0.00015379
2.03200041,-58.91670000,-3.86011300,121.40130000,-0.00003076
2.11200041,-75.11072000,-3.95238700,99.20952000,0.00012303
2.19200041,-93.74999000,-3.86011300,80.72403000,0.00073819
2.27200041,-114.21940000,-3.50639700,65.56040000,0.00193775
2.35200041,-135.82680000,-2.90661900,53.04195000,0.00362943
2.43200041,-158.01860000,-2.21456700,42.41511000,0.00553642
2.51200042,-180.36420000,-1.69168300,32.91092000,0.00713583
2.59200042,-203.03270000,-1.84547200,23.99114000,0.00750492
2.67200042,-226.22420000,-3.15268200,15.39431000,0.00581324
2.75200042,-249.96920000,-5.73634300,7.16658400,0.00187623
2.83200042,-274.14490000,-9.50418300,-0.46136810,-0.00418307
2.91200042,-298.53590000,-14.22552000,-7.10506800,-0.01184178
2.99200042,-322.81920000,-19.53125000,-12.44156000,-0.02051550
3.07200042,-346.54900000,-25.14456000,-16.24016000,-0.02965059
3.15200042,-369.29440000,-30.85015000,-18.42397000,-0.03893947
3.23200042,-390.62500000,-36.72490000,-19.17753000,-0.04850517
3.31200043,-410.18700000,-43.09178000,-18.97761000,-0.05905512
3.39200043,-427.91890000,-50.79662000,-18.40859000,-0.07209646
3.47200043,-443.86690000,-60.74680000,-17.68578000,-0.08932087
3.55200043,-457.81560000,-73.43443000,-16.91683000,-0.11186640
3.63200043,-469.59580000,-89.12093000,-16.13251000,-0.14034820
3.71200043,-478.99230000,-107.69870000,-15.20977000,-0.17492000
3.79200043,-485.82060000,-128.79860000,-14.04097000,-0.21502830
3.87200043,-489.92680000,-151.82090000,-12.50307000,-0.25962720
3.95200043,-491.26470000,-176.02730000,-10.58071000,-0.30720960
4.03200044,-489.88060000,-200.69510000,-8.27386800,-0.35608390
4.11200044,-485.94360000,-225.22450000,-5.75172200,-0.40455830
4.19200044,-479.80740000,-249.41560000,-3.22957700,-0.45140250
4.27200044,-471.96420000,-273.19140000,-0.83046260,-0.49557090
4.35200044,-462.78300000,-296.33670000,1.32258800,-0.53604820
4.43200044,-452.57130000,-318.68230000,3.13730300,-0.57212720
4.51200044,-441.54460000,-339.99750000,4.61368100,-0.60334650
4.59200044,-429.76440000,-360.05160000,5.70558500,-0.62949070
4.67200044,-417.21510000,-378.59860000,6.45915300,-0.65055980
4.75200045,-403.80470000,-395.40780000,6.93590000,-0.66667690
4.83200045,-389.39470000,-410.20240000,7.21272100,-0.67808810
4.91200045,-373.78500000,-422.81310000,7.35113100,-0.68507010
4.99200045,-356.92970000,-433.19390000,7.42802600,-0.68789980
5.07200045,-339.18240000,-441.32930000,7.50492100,-0.68679260
5.15200045,-321.00450000,-447.11180000,7.61257400,-0.68180980
5.23200045,-302.98040000,-450.40290000,7.76636300,-0.67282850
5.31200045,-285.60220000,-451.07960000,7.93553100,-0.65972570
5.39200045,-269.22360000,-449.03420000,8.10469900,-0.64240900
5.47200045,-254.02930000,-444.26670000,8.27386800,-0.62090920
5.55200046,-239.94220000,-436.85410000,8.38152000,-0.59547250
5.63200046,-226.63940000,-426.95000000,8.44303500,-0.56656000
5.71200046,-213.45960000,-414.83140000,8.44303500,-0.53481790
5.79200046,-199.81850000,-400.89810000,8.39689900,-0.50116880
5.87200046,-185.57760000,-385.68840000,8.30462600,-0.46675070
5.95200046,-170.95230000,-369.70960000,8.16621500,-0.43270180
6.03200046,-156.28070000,-353.36180000,7.96628900,-0.40000610
6.11200046,-141.97830000,-336.99860000,7.70484700,-0.36937130
6.19200046,-128.47560000,-320.74310000,7.39726800,-0.34125860
6.27200047,-116.04950000,-304.64140000,7.04355200,-0.31560650
6.35200047,-104.79210000,-288.61650000,6.61294300,-0.29213830
6.43200047,-94.61121000,-272.49940000,6.16695300,-0.27030020
6.51200047,-84.98400000,-256.01320000,5.69020700,-0.24913880
6.59200047,-75.43369000,-238.97330000,5.21345900,-0.22794660
6.67200047,-65.91412000,-221.70270000,4.76747000,-0.20678520
6.75200047,-56.50221000,-204.60140000,4.36761800,-0.18596210
6.83200047,-47.45940000,-188.20740000,4.04466000,-0.16618480
6.91200047,-39.03174000,-173.01300000,3.82935500,-0.14812990
6.99200048,-31.51144000,-159.37190000,3.70632400,-0.13238190
7.07200048,-25.06767000,-147.43790000,3.69094500,-0.11930980
7.15200048,-19.73118000,-137.14940000,3.76783900,-0.10885210
7.23200048,-15.42507000,-128.18340000,3.89087100,-0.10063980
7.31200048,-11.81102000,-119.84810000,4.01390200,-0.09365772
7.39200048,-8.53530900,-111.52800000,4.13693400,-0.08692175
7.47200048,-5.58255400,-103.08500000,4.18307100,-0.08012426
7.55200048,-2.96813500,-94.61121000,4.15231300,-0.07314222
7.63200048,-0.83046260,-86.32197000,4.02928100,-0.06616019
7.71200048,0.64591530,-78.58636000,3.78321800,-0.05948573
7.79200049,1.35334600,-71.71198000,3.44488200,-0.05342643
7.87200049,1.21493600,-65.88336000,3.01427100,-0.04828986
7.95200049,0.24606300,-61.17741000,2.52214600,-0.04416831
8.03200049,-1.39948300,-57.45570000,1.98388300,-0.04109252
8.11200049,-3.42950300,-54.24151000,1.43024100,-0.03863189
8.19200049,-5.56717500,-51.05807000,0.92273620,-0.03644808
8.27200049,-7.62795300,-47.75159000,0.49212600,-0.03451033
8.35200049,-9.48880400,-44.32209000,0.18454720,-0.03288017
8.43200049,-11.07283000,-40.89259000,0.01537894,-0.03174213
8.51200050,-12.38004000,-37.63226000,0.01537894,-0.03121924
8.59200050,-13.42581000,-34.74102000,0.18454720,-0.03143455
8.67200050,-14.25627000,-32.34190000,0.49212600,-0.03248031
8.75200050,-14.94833000,-30.51181000,0.92273620,-0.03426427
8.83200050,-15.53273000,-29.14308000,1.43024100,-0.03660187
8.91200050,-16.08637000,-27.97429000,1.98388300,-0.03918553
8.99200050,-16.64001000,-26.68245000,2.50676700,-0.04164616
9.07200050,-17.28592000,-25.11380000,3.01427100,-0.04379921
9.15200050,-18.08563000,-23.17606000,3.44488200,-0.04549089
9.23200051,-19.05450000,-20.88459000,3.78321800,-0.04665969
9.31200051,-20.20792000,-18.27018000,4.02928100,-0.04736713
9.39200051,-21.51513000,-15.45583000,4.19845000,-0.04761319
9.47200051,-22.91462000,-12.54921000,4.27534400,-0.04755167
9.55200051,-24.37561000,-9.62721400,4.29072300,-0.04718258
9.63200051,-25.82123000,-6.78211100,4.25996500,-0.04659818
9.71200051,-27.17458000,-3.98314500,4.18307100,-0.04576772
9.79200051,-28.42027000,-1.21493600,4.10617600,-0.04469119
9.87200051,-29.48142000,1.50713600,4.02928100,-0.04339936
9.95200051,-30.37340000,4.13693400,3.96776600,-0.04186147
10.03200052,-31.09621000,6.64370100,3.93700800,-0.04013903
10.11200052,-31.61909000,8.99667800,3.92162900,-0.03826280
10.19200052,-32.00356000,11.13435000,3.92162900,-0.03623278
10.27200052,-32.21887000,13.05672000,3.93700800,-0.03407972
10.35200052,-32.29576000,14.74840000,3.93700800,-0.03180364
10.43200052,-32.21887000,16.19402000,3.95238700,-0.02943528
10.51200052,-31.94205000,17.42434000,3.95238700,-0.02697466
10.59200052,-31.43455000,18.42397000,3.95238700,-0.02445251
10.67200052,-30.65022000,19.16216000,3.93700800,-0.02183809
10.75200053,-29.57369000,19.59276000,3.92162900,-0.01928519
10.83200053,-28.23573000,19.70042000,3.92162900,-0.01685531
10.91200053,-26.62094000,19.43897000,3.92162900,-0.01457923
10.99200053,-24.80622000,18.83920000,3.92162900,-0.01254921
11.07200053,-22.79158000,17.88570000,3.93700800,-0.01079601
11.15200053,-20.62315000,16.64001000,3.95238700,-0.00928888
11.23200053,-18.34707000,15.14825000,3.95238700,-0.00796629
11.31200053,-15.96334000,13.44119000,3.95238700,-0.00673597
11.39200053,-13.45657000,11.56496000,3.95238700,-0.00547490
11.47200053,-10.82677000,9.53494100,3.93700800,-0.00409080
