Time,Channel A,Channel B,Channel C,Channel D
(ns),(mV),(mV),(mV),(V)

-15.43999983,-0.13841040,-3.78321800,3.81397600,0.00778174
-15.35999982,-0.49212600,-3.44488200,3.66018700,0.00741265
-15.27999982,-0.92273620,-3.01427100,3.59867100,0.00670522
-15.19999982,-1.43024100,-2.50676700,3.59867100,0.00572097
-15.11999982,-1.96850400,-1.98388300,3.64480800,0.00455217
-15.03999982,-2.52214600,-1.43024100,3.72170300,0.00335261
-14.95999982,-3.01427100,-0.92273620,3.78321800,0.00218381
-14.87999982,-3.44488200,-0.49212600,3.82935500,0.00116880
-14.79999982,-3.73708200,-0.18454720,3.87549200,0.00046137
-14.71999982,-3.90625000,-0.01537894,3.90625000,0.00006152
-14.63999981,-3.90625000,-0.01537894,3.93700800,0.00003076
-14.55999981,-3.73708200,-0.18454720,3.98314500,0.00033834
-14.47999981,-3.44488200,-0.49212600,4.04466000,0.00098425
-14.39999981,-3.01427100,-0.92273620,4.10617600,0.00184547
-14.31999981,-2.52214600,-1.43024100,4.18307100,0.00286048
-14.23999981,-1.96850400,-1.98388300,4.25996500,0.00396777
-14.15999981,-1.43024100,-2.50676700,4.29072300,0.00501353
-14.07999981,-0.92273620,-2.99889300,4.27534400,0.00599779
-13.99999981,-0.49212600,-3.42950300,4.19845000,0.00685901
-13.91999980,-0.13841040,-3.78321800,4.02928100,0.00756644
-13.83999980,0.10765260,-4.04466000,3.78321800,0.00808932
-13.75999980,0.27682080,-4.24458600,3.44488200,0.00848917
-13.67999980,0.33833660,-4.36761800,3.01427100,0.00873524
-13.59999980,0.35371550,-4.45989200,2.50676700,0.00891978
-13.51999980,0.30757870,-4.49065000,1.98388300,0.00898130
-13.43999980,0.23068400,-4.49065000,1.43024100,0.00898130
-13.35999980,0.16916830,-4.44451300,0.92273620,0.00891978
-13.27999980,0.09227362,-4.36761800,0.49212600,0.00873524
-13.19999980,0.04613681,-4.22920700,0.18454720,0.00848917
-13.11999979,0.01537894,-4.02928100,0.01537894,0.00808932
-13.03999979,0.00000000,-3.79859700,0.01537894,0.00756644
-12.95999979,-0.01537894,-3.52177600,0.18454720,0.00685901
-12.87999979,0.00000000,-3.19881900,0.49212600,0.00599779
-12.79999979,0.00000000,-2.82972400,0.92273620,0.00501353
-12.71999979,0.00000000,-2.44525100,1.43024100,0.00396777
-12.63999979,0.00000000,-2.04539800,1.98388300,0.00286048
-12.55999979,0.00000000,-1.61478800,2.52214600,0.00184547
-12.47999979,0.00000000,-1.18417800,3.01427100,0.00098425
-12.39999978,0.00000000,-0.72281000,3.44488200,0.00036909
-12.31999978,0.00000000,-0.24606300,3.78321800,0.00003076
-12.23999978,0.00000000,0.26144190,4.02928100,0.00003076
-12.15999978,0.00000000,0.78432570,4.15231300,0.00036909
-12.07999978,0.00000000,1.35334600,4.18307100,0.00098425
-11.99999978,0.00000000,1.93774600,4.13693400,0.00184547
-11.91999978,0.00000000,2.52214600,4.01390200,0.00286048
-11.83999978,0.00000000,3.06040800,3.89087100,0.00396777
-11.75999978,0.00000000,3.52177600,3.76783900,0.00501353
-11.67999977,0.00000000,3.87549200,3.69094500,0.00599779
-11.59999977,0.00000000,4.04466000,3.70632400,0.00685901
-11.51999977,0.00000000,4.01390200,3.81397600,0.00756644
-11.43999977,0.00000000,3.76783900,4.06003900,0.00808932
-11.35999977,0.00000000,3.29109200,4.39837600,0.00848917
-11.27999977,0.00000000,2.59904000,4.85974400,0.00873524
-11.19999977,0.00000000,1.75319900,5.36724900,0.00891978
-11.11999977,0.00000000,0.78432570,5.92089000,0.00898130
-11.03999977,0.00000000,-0.24606300,6.47453200,0.00898130
-10.95999977,0.00000000,-1.24569400,6.96665800,0.00891978
-10.87999976,0.00000000,-2.16843000,7.38188900,0.00873524
-10.79999976,0.00000000,-2.98351400,7.67408900,0.00848917
-10.71999976,0.00000000,-3.64480800,7.82787800,0.00808932
-10.63999976,0.00000000,-4.15231300,7.82787800,0.00756644
-10.55999976,0.00000000,-4.50602900,7.67408900,0.00685901
-10.47999976,0.00000000,-4.70595500,7.38188900,0.00599779
-10.39999976,0.00000000,-4.79822800,6.96665800,0.00501353
-10.31999976,0.00000000,-4.79822800,6.47453200,0.00396777
-10.23999976,0.00000000,-4.73671200,5.92089000,0.00286048
-10.15999975,0.00000000,-4.61368100,5.38262700,0.00184547
-10.07999975,0.00000000,-4.45989200,4.87512300,0.00098425
-9.99999975,0.01537894,-4.27534400,4.42913300,0.00036909
-9.91999975,0.00000000,-4.04466000,4.06003900,0.00003076
-9.83999975,-0.01537894,-3.78321800,3.79859700,0.00003076
-9.75999975,-0.04613681,-3.46026100,3.61405000,0.00036909
-9.67999975,-0.09227362,-3.09116600,3.50639700,0.00098425
-9.59999975,-0.16916830,-2.67593500,3.42950300,0.00184547
-9.51999975,-0.23068400,-2.21456700,3.41412400,0.00286048
-9.43999974,-0.30757870,-1.73782000,3.41412400,0.00396777
-9.35999974,-0.35371550,-1.27645200,3.42950300,0.00501353
-9.27999974,-0.33833660,-0.83046260,3.50639700,0.00602854
-9.19999974,-0.27682080,-0.46136810,3.61405000,0.00688976
-9.11999974,-0.10765260,-0.13841040,3.79859700,0.00756644
-9.03999974,0.13841040,0.12303150,4.06003900,0.00805856
-8.95999974,0.49212600,0.30757870,4.42913300,0.00839690
-8.87999974,0.92273620,0.43061020,4.87512300,0.00855069
-8.79999974,1.43024100,0.50750490,5.38262700,0.00858145
-8.71999974,1.96850400,0.53826270,5.92089000,0.00851993
-8.63999973,2.52214600,0.53826270,6.47453200,0.00836614
-8.55999973,3.01427100,0.50750490,6.96665800,0.00821235
-8.47999973,3.44488200,0.43061020,7.38188900,0.00805856
-8.39999973,3.73708200,0.30757870,7.67408900,0.00793553
-8.31999973,3.90625000,0.12303150,7.82787800,0.00787402
-8.23999973,3.90625000,-0.13841040,7.82787800,0.00784326
-8.15999973,3.73708200,-0.49212600,7.67408900,0.00784326
-8.07999973,3.44488200,-0.93811510,7.38188900,0.00787402
-7.99999973,3.01427100,-1.43024100,6.96665800,0.00787402
-7.91999972,2.52214600,-1.96850400,6.47453200,0.00790477
-7.83999972,1.96850400,-2.52214600,5.92089000,0.00790477
-7.75999972,1.43024100,-3.02965000,5.38262700,0.00787402
-7.67999972,0.92273620,-3.46026100,4.85974400,0.00787402
-7.59999972,0.49212600,-3.76783900,4.41375400,0.00784326
-7.51999972,0.13841040,-3.92162900,4.06003900,0.00784326
-7.43999972,-0.10765260,-3.87549200,3.81397600,0.00787402
-7.35999972,-0.27682080,-3.66018700,3.66018700,0.00793553
-7.27999972,-0.33833660,-3.24495600,3.59867100,0.00805856
-7.19999972,-0.35371550,-2.69131400,3.59867100,0.00821235
-7.11999971,-0.30757870,-2.04539800,3.64480800,0.00836614
-7.03999971,-0.23068400,-1.36872500,3.72170300,0.00851993
-6.95999971,-0.16916830,-0.73818890,3.78321800,0.00858145
-6.87999971,-0.09227362,-0.24606300,3.84473400,0.00855069
-6.79999971,-0.04613681,0.04613681,3.89087100,0.00839690
-6.71999971,-0.01537894,0.09227362,3.90625000,0.00805856
-6.63999971,0.00000000,-0.16916830,3.92162900,0.00756644
-6.55999971,0.01537894,-0.70743110,3.93700800,0.00688976
-6.47999971,0.00000000,-1.50713600,3.93700800,0.00602854
-6.39999970,0.00000000,-2.52214600,3.95238700,0.00501353
-6.31999970,0.00000000,-3.64480800,3.95238700,0.00396777
-6.23999970,0.00000000,-4.79822800,3.95238700,0.00286048
-6.15999970,0.00000000,-5.87475300,3.95238700,0.00184547
-6.07999970,0.00000000,-6.78211100,3.93700800,0.00098425
-5.99999970,0.00000000,-7.44340500,3.92162900,0.00033834
-5.91999970,0.00000000,-7.79712100,3.92162900,0.00003076
-5.83999970,0.00000000,-7.81250000,3.92162900,0.00006152
-5.75999970,0.00000000,-7.50492100,3.92162900,0.00046137
-5.67999969,0.00000000,-6.88976300,3.93700800,0.00116880
-5.59999969,0.00000000,-6.04392200,3.95238700,0.00218381
-5.51999969,0.00000000,-5.04429100,3.95238700,0.00335261
-5.43999969,0.00000000,-3.95238700,3.95238700,0.00455217
-5.35999969,0.00000000,-2.86048200,3.95238700,0.00572097
-5.27999969,0.00000000,-1.84547200,3.93700800,0.00670522
-5.19999969,0.00000000,-0.96887300,3.92162900,0.00741265
-5.11999969,0.00000000,-0.27682080,3.92162900,0.00778174
-5.03999969,0.00000000,0.23068400,3.92162900,0.00778174
-4.95999969,0.00000000,0.53826270,3.92162900,0.00741265
-4.87999968,0.00000000,0.67667320,3.93700800,0.00670522
-4.79999968,0.00000000,0.69205210,3.95238700,0.00572097
-4.71999968,0.00000000,0.61515740,3.95238700,0.00455217
-4.63999968,0.00000000,0.47674700,3.95238700,0.00335261
-4.55999968,0.00000000,0.32295760,3.95238700,0.00218381
-4.47999968,0.00000000,0.18454720,3.93700800,0.00116880
-4.39999968,0.01537894,0.09227362,3.92162900,0.00043061
-4.31999968,0.00000000,0.01537894,3.92162900,0.00006152
-4.23999968,-0.01537894,-0.01537894,3.92162900,0.00006152
-4.15999967,-0.04613681,-0.01537894,3.92162900,0.00043061
-4.07999967,-0.09227362,-0.01537894,3.93700800,0.00116880
-3.99999967,-0.16916830,0.00000000,3.95238700,0.00218381
-3.91999967,-0.23068400,0.00000000,3.95238700,0.00335261
-3.83999967,-0.30757870,0.00000000,3.95238700,0.00455217
-3.75999967,-0.35371550,0.00000000,3.95238700,0.00572097
-3.67999967,-0.33833660,0.00000000,3.93700800,0.00670522
-3.59999967,-0.27682080,-0.01537894,3.92162900,0.00741265
-3.51999967,-0.10765260,0.00000000,3.92162900,0.00778174
-3.43999966,0.13841040,0.01537894,3.92162900,0.00778174
-3.35999966,0.49212600,0.04613681,3.92162900,0.00741265
-3.27999966,0.92273620,0.09227362,3.93700800,0.00670522
-3.19999966,1.43024100,0.16916830,3.95238700,0.00572097
-3.11999966,1.96850400,0.23068400,3.95238700,0.00455217
-3.03999966,2.52214600,0.30757870,3.95238700,0.00335261
-2.95999966,3.01427100,0.35371550,3.95238700,0.00218381
-2.87999966,3.42950300,0.33833660,3.93700800,0.00116880
-2.79999966,3.73708200,0.27682080,3.92162900,0.00046137
-2.71999966,3.89087100,0.10765260,3.92162900,0.00006152
-2.63999965,3.90625000,-0.13841040,3.92162900,0.00003076
-2.55999965,3.78321800,-0.49212600,3.92162900,0.00033834
-2.47999965,3.53715500,-0.92273620,3.93700800,0.00098425
-2.39999965,3.18344000,-1.43024100,3.95238700,0.00184547
-2.31999965,2.75283000,-1.96850400,3.95238700,0.00286048
-2.23999965,2.27608300,-2.52214600,3.95238700,0.00396777
-2.15999965,1.78395700,-3.02965000,3.95238700,0.00501353
-2.07999965,1.26107300,-3.44488200,3.93700800,0.00602854
-1.99999965,0.75356790,-3.75246000,3.92162900,0.00688976
-1.91999964,0.24606300,-3.90625000,3.92162900,0.00756644
-1.83999964,-0.24606300,-3.89087100,3.92162900,0.00805856
-1.75999964,-0.75356790,-3.70632400,3.92162900,0.00839690
-1.67999964,-1.26107300,-3.35260800,3.93700800,0.00855069
-1.59999964,-1.78395700,-2.86048200,3.95238700,0.00858145
-1.51999964,-2.27608300,-2.27608300,3.95238700,0.00851993
-1.43999964,-2.75283000,-1.67630400,3.95238700,0.00836614
-1.35999964,-3.18344000,-1.09190400,3.99852300,0.00821235
-1.27999964,-3.53715500,-0.58439960,4.12155500,0.00805856
-1.19999963,-3.78321800,-0.23068400,4.21382900,0.00793553
-1.11999963,-3.90625000,-0.03075787,4.10617600,0.00787402
-1.03999963,-3.90625000,-0.01537894,3.62942900,0.00784326
-0.95999963,-3.78321800,-0.16916830,2.62979800,0.00784326
-0.87999963,-3.53715500,-0.49212600,1.09190400,0.00787402
-0.79999963,-3.18344000,-0.92273620,-0.92273620,0.00787402
-0.71999963,-2.75283000,-1.43024100,-3.15268200,0.00790477
-0.63999963,-2.27608300,-1.98388300,-5.16732200,0.00790477
-0.55999963,-1.78395700,-2.50676700,-6.32074300,0.00790477
-0.47999963,-1.27645200,-3.01427100,-5.89013200,0.00787402
-0.39999962,-0.76894680,-3.44488200,-3.53715500,0.00784326
-0.31999962,-0.26144190,-3.78321800,0.92273620,0.00784326
-0.23999962,0.26144190,-4.02928100,7.41264700,0.00784326
-0.15999962,0.79970470,-4.19845000,15.71727000,0.00784326
-0.07999962,1.36872500,-4.27534400,25.42138000,0.00787402
0.00000038,1.93774600,-4.29072300,36.15588000,0.00790477
0.08000038,2.52214600,-4.25996500,47.56705000,0.00790477
0.16000038,3.06040800,-4.18307100,59.42421000,0.00790477
0.24000038,3.49101900,-4.10617600,71.74274000,0.00790477
0.32000039,3.73708200,-4.02928100,84.66105000,0.00787402
0.40000039,3.86011300,-3.96776600,98.48671000,0.00784326
0.48000039,3.89087100,-3.92162900,113.52730000,0.00784326
0.56000039,3.96776600,-3.92162900,130.04430000,0.00784326
0.64000039,4.15231300,-3.96776600,148.12990000,0.00784326
0.72000039,4.50602900,-4.02928100,167.58430000,0.00787402
0.80000039,4.99815400,-4.10617600,187.88450000,0.00790477
0.88000039,5.52103800,-4.18307100,208.18470000,0.00790477
0.96000039,5.84399600,-4.25996500,227.28530000,0.00790477
1.04000039,5.52103800,-4.29072300,243.83300000,0.00787402
1.12000040,4.13693400,-4.29072300,256.41300000,0.00784326
1.20000040,1.63016700,-4.21382900,263.73340000,0.00781250
1.28000040,-1.87623000,-4.04466000,264.79450000,0.00781250
1.36000040,-6.10543700,-3.76783900,259.07360000,0.00787402
1.44000040,-10.71912000,-3.39874500,246.50900000,0.00802781
1.52000040,-15.42507000,-2.92199800,227.66980000,0.00824311
1.60000040,-20.10027000,-2.35297700,203.61710000,0.00855069
1.68000040,-24.88312000,-1.73782000,175.81200000,0.00885827
1.76000040,-30.15809000,-1.12266200,146.02300000,0.00913509
1.84000041,-36.87869000,-0.63053640,116.04950000,0.00916585
1.92000041,-46.04453000,-0.33833660,87.59842000,0.00891978
2.00000041,-58.17851000,-0.19992620,62.08476000,0.00842766
2.08000041,-73.51131000,-0.09227362,40.50812000,0.00799705
2.16000041,-91.96603000,0.12303150,23.39136000,0.00781250
2.24000041,-113.11210000,0.58439960,10.78063000,0.00815084
2.32000041,-136.30350000,1.33796700,2.24532500,0.00910433
2.40000041,-160.80220000,2.35297700,-2.93737700,0.01061147
2.48000041,-185.85440000,3.46026100,-5.69020700,0.01230315
2.56000042,-210.93750000,4.32148100,-7.01279500,0.01365650
2.64000042,-235.92830000,4.32148100,-7.79712100,0.01350271
2.72000042,-260.85750000,2.86048200,-8.59682500,0.01088829
2.80000042,-285.55610000,-0.24606300,-9.67335100,0.00541339
2.88000042,-309.77790000,-4.96739600,-11.02670000,-0.00279897
2.96000042,-333.27690000,-11.02670000,-12.48770000,-0.01341043
3.04000042,-355.73020000,-18.07025000,-13.76415000,-0.02574434
3.12000042,-376.83010000,-25.71358000,-14.57923000,-0.03918553
3.20000042,-396.23830000,-33.71063000,-14.73302000,-0.05327264
3.28000042,-413.72410000,-42.01525000,-14.17938000,-0.06791338
3.36000043,-429.13390000,-50.90428000,-13.16437000,-0.08350763
3.44000043,-442.55960000,-61.17741000,-11.98019000,-0.10122420
3.52000043,-454.15540000,-73.71124000,-10.74988000,-0.12250860
3.60000043,-463.85950000,-89.02866000,-9.55032000,-0.14819140
3.68000043,-471.56430000,-107.37570000,-8.41227800,-0.17888780
3.76000043,-477.10070000,-128.67560000,-7.28961600,-0.21456690
3.84000043,-480.31490000,-152.57440000,-6.15157400,-0.25482900
3.92000043,-481.06850000,-178.42640000,-4.98277500,-0.29868970
4.00000043,-479.28450000,-205.46260000,-3.72170300,-0.34476500
4.08000044,-474.97850000,-232.86790000,-2.38373500,-0.39154770
4.16000044,-468.31940000,-259.90400000,-1.03038900,-0.43743850
4.24000044,-459.61490000,-286.23280000,0.30757870,-0.48123770
4.32000044,-449.38790000,-311.59260000,1.53789400,-0.52189960
4.40000044,-438.03820000,-335.66060000,2.64517700,-0.55847070
4.48000044,-425.93500000,-358.14470000,3.55253400,-0.59018210
4.56000044,-413.35500000,-378.78320000,4.24458600,-0.61657230
4.64000044,-400.40600000,-397.36100000,4.70595500,-0.63748770
4.72000044,-387.08780000,-413.72410000,4.93663800,-0.65295890
4.80000045,-373.30830000,-427.71900000,4.98277500,-0.66326280
4.88000045,-358.89820000,-439.23780000,4.85974400,-0.66870700
4.96000045,-343.55010000,-448.23450000,4.65981800,-0.66966040
5.04000045,-327.15610000,-454.80130000,4.42913300,-0.66661540
5.12000045,-309.96250000,-459.01510000,4.21382900,-0.65987940
5.20000045,-292.44590000,-460.82980000,4.06003900,-0.64960630
5.28000045,-275.14450000,-460.19930000,3.95238700,-0.63579600
5.36000045,-258.53530000,-457.00050000,3.90625000,-0.61844860
5.44000045,-243.04870000,-451.15650000,3.90625000,-0.59750250
5.52000045,-228.82320000,-442.69810000,3.92162900,-0.57298850
5.60000046,-215.81260000,-431.65600000,3.93700800,-0.54515250
5.68000046,-203.70940000,-418.29170000,3.95238700,-0.51439470
5.76000046,-191.83690000,-402.82050000,3.95238700,-0.48129920
5.84000046,-179.53370000,-385.73450000,3.95238700,-0.44666590
5.92000046,-166.69230000,-367.63350000,3.93700800,-0.41163260
6.00000046,-153.40490000,-349.10180000,3.92162900,-0.37733760
6.08000046,-139.99440000,-330.67790000,3.92162900,-0.34482650
6.16000046,-126.84550000,-312.74600000,3.92162900,-0.31483760
6.24000046,-114.34240000,-295.52160000,3.92162900,-0.28786300
6.32000047,-102.77740000,-279.03540000,3.93700800,-0.26384100
6.40000047,-92.25824000,-263.14900000,3.95238700,-0.24252580
6.48000047,-82.70792000,-247.61620000,3.95238700,-0.22324060
6.56000047,-73.71124000,-232.00660000,3.95238700,-0.20493970
6.64000047,-64.80684000,-215.99720000,3.95238700,-0.18676180
6.72000047,-55.99471000,-199.77240000,3.93700800,-0.16861470
6.80000047,-47.36712000,-183.67060000,3.92162900,-0.15071360
6.88000047,-39.17015000,-168.18410000,3.92162900,-0.13358140
6.96000047,-31.63447000,-153.78940000,3.92162900,-0.11789490
7.04000048,-25.03691000,-140.87100000,3.92162900,-0.10417690
7.12000048,-19.50049000,-129.61370000,3.93700800,-0.09279650
7.20000048,-15.05598000,-120.00180000,3.95238700,-0.08378445
7.28000048,-11.61110000,-111.72800000,3.95238700,-0.07683317
7.36000048,-8.81213000,-104.14620000,3.95238700,-0.07108144
7.44000048,-6.33612200,-96.64124000,3.95238700,-0.06566806
7.52000048,-4.10617600,-89.05943000,3.93700800,-0.06025467
7.60000048,-2.15305100,-81.47760000,3.92162900,-0.05484129
7.68000048,-0.59977850,-74.11109000,3.92162900,-0.04958169
7.76000048,0.44598910,-67.26746000,3.92162900,-0.04472195
7.84000049,0.86122040,-61.23892000,3.92162900,-0.04056964
7.92000049,0.55364170,-56.21001000,3.93700800,-0.03734006
8.00000049,-0.43061020,-52.24224000,3.95238700,-0.03515625
8.08000049,-1.99926200,-49.21259000,3.95238700,-0.03392594
8.16000049,-3.90625000,-46.67507000,3.95238700,-0.03321850
8.24000049,-5.89013200,-44.19906000,3.93700800,-0.03269562
8.32000049,-7.81250000,-41.66154000,3.93700800,-0.03223425
8.40000049,-9.56569900,-39.04712000,3.92162900,-0.03180364
8.48000049,-11.08821000,-36.49422000,3.92162900,-0.03146530
8.56000050,-12.38004000,-34.18737000,3.93700800,-0.03134227
8.64000050,-13.45657000,-32.32653000,3.96776600,-0.03155758
8.72000050,-14.34855000,-31.01931000,4.02928100,-0.03214198
8.80000050,-15.10212000,-30.26575000,4.10617600,-0.03309547
8.88000050,-15.77879000,-29.98893000,4.18307100,-0.03435655
8.96000050,-16.39395000,-29.83514000,4.25996500,-0.03570989
9.04000050,-16.99372000,-29.45066000,4.29072300,-0.03694021
9.12000050,-17.62426000,-28.58944000,4.27534400,-0.03795522
9.20000050,-18.34707000,-27.08231000,4.19845000,-0.03869341
9.28000051,-19.16216000,-24.89850000,4.02928100,-0.03912402
9.36000051,-20.08489000,-22.02264000,3.78321800,-0.03924705
9.44000051,-21.06914000,-18.56238000,3.44488200,-0.03912402
9.52000051,-22.08415000,-14.65613000,3.01427100,-0.03878568
9.60000051,-23.11454000,-10.45768000,2.50676700,-0.03826280
9.68000051,-24.08341000,-6.13619500,1.98388300,-0.03761688
9.76000051,-24.96001000,-1.76857800,1.43024100,-0.03678642
9.84000051,-25.74434000,2.53752400,0.92273620,-0.03580217
9.92000051,-26.39025000,6.68983700,0.50750490,-0.03466412
10.00000051,-26.91314000,10.54995000,0.19992620,-0.03340305
10.08000052,-27.29761000,14.07173000,0.03075787,-0.03208046
10.16000052,-27.58981000,17.19365000,0.01537894,-0.03069636
10.24000052,-27.77436000,19.88497000,0.13841040,-0.02928150
10.32000052,-27.85125000,22.14567000,0.39985230,-0.02786663
10.40000052,-27.85125000,24.00652000,0.76894680,-0.02645177
10.48000052,-27.71284000,25.48290000,1.19955700,-0.02500615
10.56000052,-27.45140000,26.65170000,1.67630400,-0.02349902
10.64000052,-26.97465000,27.48216000,2.16843000,-0.02189961
10.72000052,-26.26722000,27.97429000,2.67593500,-0.02020792
10.80000053,-25.32911000,28.08194000,3.18344000,-0.01842397
10.88000053,-24.17569000,27.77436000,3.67556500,-0.01660925
10.96000053,-22.85310000,27.03617000,4.16769200,-0.01479454
11.04000053,-21.36134000,25.85199000,4.64443900,-0.01301058
11.12000053,-19.77731000,24.26796000,5.10580700,-0.01128814
11.20000053,-18.11639000,22.31484000,5.56717500,-0.00965797
11.28000053,-16.37857000,20.03875000,5.99778500,-0.00812008
11.36000053,-14.53309000,17.51661000,6.39763700,-0.00661294
11.44000053,-12.53383000,14.79454000,6.78211100,-0.00510581
11.52000053,-10.33464000,11.87254000,7.13582600,-0.00359867
11.60000054,-7.92015200,8.78137200,7.44340500,-0.00212229
