Time,Channel A,Channel B,Channel C,Channel D
(ns),(mV),(mV),(mV),(V)

-15.37999983,0.23068400,-3.92162900,3.78321800,0.00805856
-15.29999982,0.70743110,-3.96776600,3.44488200,0.00836614
-15.21999982,1.16879900,-4.02928100,3.01427100,0.00855069
-15.13999982,1.61478800,-4.10617600,2.50676700,0.00858145
-15.05999982,2.04539800,-4.18307100,1.98388300,0.00851993
-14.97999982,2.44525100,-4.25996500,1.43024100,0.00836614
-14.89999982,2.82972400,-4.29072300,0.92273620,0.00821235
-14.81999982,3.19881900,-4.27534400,0.49212600,0.00805856
-14.73999982,3.52177600,-4.18307100,0.16916830,0.00793553
-14.65999982,3.79859700,-4.02928100,0.01537894,0.00787402
-14.57999981,4.02928100,-3.79859700,0.03075787,0.00784326
-14.49999981,4.22920700,-3.49101900,0.23068400,0.00784326
-14.41999981,4.36761800,-3.10654500,0.58439960,0.00787402
-14.33999981,4.44451300,-2.67593500,1.09190400,0.00787402
-14.25999981,4.49065000,-2.21456700,1.67630400,0.00790477
-14.17999981,4.49065000,-1.73782000,2.27608300,0.00790477
-14.09999981,4.44451300,-1.27645200,2.86048200,0.00790477
-14.01999981,4.36761800,-0.83046260,3.35260800,0.00787402
-13.93999981,4.22920700,-0.46136810,3.70632400,0.00784326
-13.85999980,4.04466000,-0.13841040,3.89087100,0.00784326
-13.77999980,3.78321800,0.12303150,3.89087100,0.00784326
-13.69999980,3.47564000,0.30757870,3.70632400,0.00784326
-13.61999980,3.10654500,0.43061020,3.35260800,0.00787402
-13.53999980,2.67593500,0.50750490,2.86048200,0.00790477
-13.45999980,2.21456700,0.53826270,2.27608300,0.00790477
-13.37999980,1.73782000,0.53826270,1.67630400,0.00790477
-13.29999980,1.26107300,0.50750490,1.09190400,0.00790477
-13.21999980,0.83046260,0.43061020,0.58439960,0.00787402
-13.13999980,0.43061020,0.30757870,0.23068400,0.00784326
-13.05999979,0.12303150,0.12303150,0.03075787,0.00784326
-12.97999979,-0.09227362,-0.13841040,0.01537894,0.00784326
-12.89999979,-0.21530510,-0.46136810,0.16916830,0.00784326
-12.81999979,-0.24606300,-0.83046260,0.49212600,0.00787402
-12.73999979,-0.18454720,-1.27645200,0.92273620,0.00790477
-12.65999979,-0.06151574,-1.73782000,1.43024100,0.00790477
-12.57999979,0.06151574,-2.21456700,1.98388300,0.00790477
-12.49999979,0.18454720,-2.67593500,2.50676700,0.00790477
-12.41999979,0.24606300,-3.10654500,3.01427100,0.00787402
-12.33999978,0.23068400,-3.47564000,3.44488200,0.00784326
-12.25999978,0.10765260,-3.78321800,3.78321800,0.00784326
-12.17999978,-0.13841040,-4.04466000,4.02928100,0.00784326
-12.09999978,-0.47674700,-4.22920700,4.19845000,0.00784326
-12.01999978,-0.92273620,-4.36761800,4.27534400,0.00787402
-11.93999978,-1.43024100,-4.44451300,4.29072300,0.00790477
-11.85999978,-1.96850400,-4.49065000,4.25996500,0.00790477
-11.77999978,-2.52214600,-4.49065000,4.18307100,0.00790477
-11.69999978,-3.01427100,-4.45989200,4.10617600,0.00790477
-11.61999977,-3.44488200,-4.36761800,4.02928100,0.00787402
-11.53999977,-3.73708200,-4.24458600,3.96776600,0.00784326
-11.45999977,-3.90625000,-4.04466000,3.93700800,0.00784326
-11.37999977,-3.90625000,-3.78321800,3.92162900,0.00784326
-11.29999977,-3.73708200,-3.42950300,3.92162900,0.00784326
-11.21999977,-3.44488200,-2.99889300,3.93700800,0.00787402
-11.13999977,-3.01427100,-2.50676700,3.93700800,0.00790477
-11.05999977,-2.52214600,-1.98388300,3.95238700,0.00790477
-10.97999977,-1.96850400,-1.43024100,3.95238700,0.00790477
-10.89999977,-1.43024100,-0.92273620,3.95238700,0.00790477
-10.81999976,-0.92273620,-0.49212600,3.93700800,0.00787402
-10.73999976,-0.49212600,-0.16916830,3.92162900,0.00784326
-10.65999976,-0.13841040,-0.01537894,3.92162900,0.00784326
-10.57999976,0.10765260,-0.03075787,3.92162900,0.00784326
-10.49999976,0.27682080,-0.23068400,3.92162900,0.00784326
-10.41999976,0.33833660,-0.58439960,3.93700800,0.00787402
-10.33999976,0.35371550,-1.09190400,3.95238700,0.00790477
-10.25999976,0.30757870,-1.67630400,3.95238700,0.00790477
-10.17999976,0.23068400,-2.27608300,3.95238700,0.00790477
-10.09999975,0.16916830,-2.86048200,3.95238700,0.00787402
-10.01999975,0.09227362,-3.35260800,3.93700800,0.00787402
-9.93999975,0.04613681,-3.70632400,3.92162900,0.00784326
-9.85999975,0.01537894,-3.89087100,3.92162900,0.00784326
-9.77999975,0.00000000,-3.90625000,3.92162900,0.00787402
-9.69999975,-0.01537894,-3.75246000,3.92162900,0.00793553
-9.61999975,0.00000000,-3.44488200,3.93700800,0.00805856
-9.53999975,0.00000000,-3.02965000,3.95238700,0.00821235
-9.45999975,0.00000000,-2.52214600,3.95238700,0.00836614
-9.37999974,0.00000000,-1.96850400,3.95238700,0.00851993
-9.29999974,0.00000000,-1.43024100,3.95238700,0.00858145
-9.21999974,0.00000000,-0.92273620,3.93700800,0.00855069
-9.13999974,0.00000000,-0.49212600,3.92162900,0.00836614
-9.05999974,0.00000000,-0.13841040,3.92162900,0.00805856
-8.97999974,0.00000000,0.10765260,3.92162900,0.00759720
-8.89999974,0.00000000,0.27682080,3.92162900,0.00698204
-8.81999974,0.00000000,0.33833660,3.93700800,0.00621309
-8.73999974,0.00000000,0.35371550,3.95238700,0.00535187
-8.65999974,0.00000000,0.30757870,3.95238700,0.00442913
-8.57999973,0.00000000,0.23068400,3.95238700,0.00347564
-8.49999973,0.00000000,0.15378940,3.95238700,0.00255290
-8.41999973,0.00000000,0.09227362,3.93700800,0.00166093
-8.33999973,-0.01537894,0.03075787,3.92162900,0.00092274
-8.25999973,0.00000000,0.00000000,3.92162900,0.00027682
-8.17999973,0.01537894,0.00000000,3.92162900,-0.00024606
-8.09999973,0.04613681,0.03075787,3.92162900,-0.00061516
-8.01999973,0.09227362,0.09227362,3.93700800,-0.00086122
-7.93999973,0.16916830,0.15378940,3.95238700,-0.00101501
-7.85999972,0.23068400,0.23068400,3.95238700,-0.00107653
-7.77999972,0.30757870,0.30757870,3.95238700,-0.00107653
-7.69999972,0.35371550,0.35371550,3.95238700,-0.00101501
-7.61999972,0.33833660,0.33833660,3.93700800,-0.00086122
-7.53999972,0.27682080,0.27682080,3.92162900,-0.00061516
-7.45999972,0.10765260,0.10765260,3.92162900,-0.00024606
-7.37999972,-0.13841040,-0.13841040,3.92162900,0.00027682
-7.29999972,-0.49212600,-0.49212600,3.92162900,0.00098425
-7.21999972,-0.92273620,-0.92273620,3.93700800,0.00187623
-7.13999972,-1.43024100,-1.43024100,3.95238700,0.00286048
-7.05999971,-1.96850400,-1.96850400,3.95238700,0.00393701
-6.97999971,-2.52214600,-2.52214600,3.95238700,0.00504429
-6.89999971,-3.01427100,-3.01427100,3.95238700,0.00605930
-6.81999971,-3.42950300,-3.44488200,3.93700800,0.00688976
-6.73999971,-3.73708200,-3.73708200,3.92162900,0.00750492
-6.65999971,-3.89087100,-3.90625000,3.92162900,0.00781250
-6.57999971,-3.90625000,-3.90625000,3.92162900,0.00778174
-6.49999971,-3.78321800,-3.73708200,3.92162900,0.00741265
-6.41999971,-3.53715500,-3.44488200,3.93700800,0.00670522
-6.33999970,-3.18344000,-3.01427100,3.95238700,0.00572097
-6.25999970,-2.75283000,-2.52214600,3.95238700,0.00455217
-6.17999970,-2.27608300,-1.96850400,3.95238700,0.00335261
-6.09999970,-1.78395700,-1.43024100,3.93700800,0.00218381
-6.01999970,-1.26107300,-0.92273620,3.93700800,0.00116880
-5.93999970,-0.75356790,-0.49212600,3.92162900,0.00046137
-5.85999970,-0.24606300,-0.13841040,3.92162900,0.00006152
-5.77999970,0.24606300,0.10765260,3.93700800,0.00003076
-5.69999970,0.75356790,0.27682080,3.96776600,0.00033834
-5.61999969,1.26107300,0.33833660,4.02928100,0.00098425
-5.53999969,1.78395700,0.35371550,4.10617600,0.00184547
-5.45999969,2.27608300,0.30757870,4.18307100,0.00286048
-5.37999969,2.75283000,0.23068400,4.25996500,0.00396777
-5.29999969,3.18344000,0.15378940,4.29072300,0.00501353
-5.21999969,3.53715500,0.09227362,4.27534400,0.00602854
-5.13999969,3.79859700,0.03075787,4.18307100,0.00688976
-5.05999969,3.92162900,0.00000000,4.02928100,0.00756644
-4.97999969,3.89087100,0.00000000,3.79859700,0.00805856
-4.89999969,3.69094500,0.03075787,3.49101900,0.00839690
-4.81999968,3.33722900,0.09227362,3.10654500,0.00855069
-4.73999968,2.86048200,0.15378940,2.67593500,0.00858145
-4.65999968,2.27608300,0.23068400,2.21456700,0.00851993
-4.57999968,1.67630400,0.30757870,1.73782000,0.00836614
-4.49999968,1.09190400,0.35371550,1.27645200,0.00821235
-4.41999968,0.58439960,0.33833660,0.83046260,0.00805856
-4.33999968,0.21530510,0.27682080,0.46136810,0.00793553
-4.25999968,0.03075787,0.10765260,0.13841040,0.00784326
-4.17999968,0.03075787,-0.13841040,-0.12303150,0.00784326
-4.09999967,0.21530510,-0.49212600,-0.30757870,0.00793553
-4.01999967,0.58439960,-0.92273620,-0.43061020,0.00805856
-3.93999967,1.09190400,-1.43024100,-0.50750490,0.00821235
-3.85999967,1.67630400,-1.96850400,-0.53826270,0.00836614
-3.77999967,2.27608300,-2.52214600,-0.53826270,0.00851993
-3.69999967,2.86048200,-3.02965000,-0.50750490,0.00858145
-3.61999967,3.35260800,-3.44488200,-0.43061020,0.00855069
-3.53999967,3.70632400,-3.75246000,-0.30757870,0.00839690
-3.45999967,3.89087100,-3.90625000,-0.12303150,0.00805856
-3.37999966,3.90625000,-3.89087100,0.13841040,0.00756644
-3.29999966,3.75246000,-3.70632400,0.46136810,0.00688976
-3.21999966,3.44488200,-3.35260800,0.83046260,0.00602854
-3.13999966,3.02965000,-2.86048200,1.27645200,0.00501353
-3.05999966,2.52214600,-2.27608300,1.73782000,0.00396777
-2.97999966,1.96850400,-1.67630400,2.21456700,0.00286048
-2.89999966,1.43024100,-1.09190400,2.67593500,0.00184547
-2.81999966,0.92273620,-0.58439960,3.10654500,0.00098425
-2.73999966,0.49212600,-0.23068400,3.49101900,0.00036909
-2.65999966,0.13841040,-0.03075787,3.79859700,0.00003076
-2.57999965,-0.10765260,-0.01537894,4.01390200,0.00003076
-2.49999965,-0.27682080,-0.16916830,4.15231300,0.00036909
-2.41999965,-0.33833660,-0.49212600,4.18307100,0.00098425
-2.33999965,-0.35371550,-0.92273620,4.12155500,0.00184547
-2.25999965,-0.30757870,-1.43024100,4.01390200,0.00286048
-2.17999965,-0.23068400,-1.98388300,3.89087100,0.00396777
-2.09999965,-0.16916830,-2.50676700,3.76783900,0.00501353
-2.01999965,-0.09227362,-3.01427100,3.69094500,0.00602854
-1.93999965,-0.04613681,-3.44488200,3.70632400,0.00688976
-1.85999964,-0.01537894,-3.78321800,3.81397600,0.00756644
-1.77999964,0.00000000,-4.02928100,4.06003900,0.00805856
-1.69999964,0.01537894,-4.19845000,4.39837600,0.00839690
-1.61999964,0.00000000,-4.27534400,4.85974400,0.00855069
-1.53999964,0.00000000,-4.29072300,5.36724900,0.00858145
-1.45999964,0.00000000,-4.25996500,5.92089000,0.00851993
-1.37999964,0.00000000,-4.18307100,6.47453200,0.00836614
-1.29999964,0.00000000,-4.10617600,7.04355200,0.00821235
-1.21999964,0.00000000,-4.02928100,7.62795300,0.00805856
-1.13999963,-0.01537894,-3.96776600,8.05856200,0.00793553
-1.05999963,0.00000000,-3.93700800,8.07394100,0.00787402
-0.97999963,0.01537894,-3.92162900,7.42802600,0.00784326
-0.89999963,0.04613681,-3.92162900,5.95164800,0.00784326
-0.81999963,0.09227362,-3.93700800,3.58329200,0.00787402
-0.73999963,0.16916830,-3.93700800,0.47674700,0.00787402
-0.65999963,0.23068400,-3.95238700,-2.99889300,0.00790477
-0.57999963,0.30757870,-3.95238700,-6.24384800,0.00790477
-0.49999963,0.33833660,-3.93700800,-8.35076200,0.00790477
-0.41999963,0.32295760,-3.93700800,-8.42765700,0.00787402
-0.33999962,0.24606300,-3.92162900,-5.81323800,0.00784326
-0.25999962,0.09227362,-3.92162900,-0.12303150,0.00784326
-0.17999962,-0.10765260,-3.93700800,8.75061400,0.00784326
-0.09999962,-0.35371550,-3.96776600,20.57702000,0.00784326
-0.01999962,-0.64591530,-4.02928100,34.91019000,0.00787402
0.06000038,-0.93811510,-4.10617600,51.10420000,0.00790477
0.14000038,-1.26107300,-4.18307100,68.43627000,0.00790477
0.22000038,-1.59940900,-4.25996500,86.19894000,0.00790477
0.30000038,-2.03002000,-4.29072300,103.85400000,0.00790477
0.38000039,-2.58366100,-4.27534400,121.01680000,0.00787402
0.46000039,-3.19881900,-4.18307100,137.48770000,0.00784326
0.54000039,-3.72170300,-4.02928100,153.20500000,0.00784326
0.62000039,-4.04466000,-3.79859700,168.26090000,0.00784326
0.70000039,-4.04466000,-3.49101900,182.73250000,0.00784326
0.78000039,-3.66018700,-3.10654500,196.65050000,0.00787402
0.86000039,-2.93737700,-2.67593500,209.84560000,0.00790477
0.94000039,-2.04539800,-2.21456700,221.99490000,0.00790477
1.02000039,-1.32258800,-1.73782000,232.52950000,0.00790477
1.10000039,-1.32258800,-1.27645200,240.71110000,0.00787402
1.18000040,-2.58366100,-0.84584150,245.69390000,0.00784326
1.26000040,-5.27497500,-0.47674700,246.67810000,0.00781250
1.34000040,-9.31963500,-0.15378940,242.98720000,0.00781250
1.42000040,-14.45620000,0.13841040,234.25200000,0.00790477
1.50000040,-20.33095000,0.38447340,220.41090000,0.00812008
1.58000040,-26.60556000,0.61515740,201.84850000,0.00842766
1.66000040,-33.06471000,0.83046260,179.31840000,0.00885827
1.74000040,-39.73917000,1.01501000,153.95850000,0.00931964
1.82000040,-46.92113000,1.15342000,127.07610000,0.00971949
1.90000041,-55.45644000,1.12266200,100.14760000,0.00984252
1.98000041,-66.28321000,0.87659940,74.55708000,0.00950418
2.06000041,-79.89357000,0.49212600,51.51944000,0.00885827
2.14000041,-96.50283000,0.12303150,31.89591000,0.00815084
2.22000041,-116.00330000,-0.04613681,16.17864000,0.00765871
2.30000041,-138.02590000,0.12303150,4.47527100,0.00768947
2.38000041,-161.92480000,0.73818890,-3.55253400,0.00839690
2.46000041,-186.97710000,1.70706200,-8.47379300,0.00968873
2.54000041,-212.44460000,2.82972400,-11.10359000,0.01119587
2.62000042,-237.72760000,3.70632400,-12.36466000,0.01227239
2.70000042,-262.65690000,3.55253400,-13.05672000,0.01162648
2.78000042,-287.17090000,1.70706200,-13.65650000,0.00808932
2.86000042,-311.06970000,-2.16843000,-14.39468000,0.00116880
2.94000042,-334.07660000,-8.08932000,-15.25591000,-0.00925812
3.02000042,-355.94550000,-15.85568000,-16.07099000,-0.02285310
3.10000042,-376.36870000,-25.08304000,-16.57849000,-0.03909326
3.18000042,-395.08490000,-35.34079000,-16.54774000,-0.05717889
3.26000042,-411.83250000,-46.25984000,-15.79417000,-0.07649484
3.34000042,-426.45790000,-57.65563000,-14.34855000,-0.09664124
3.42000043,-438.86870000,-69.60506000,-12.44156000,-0.11767960
3.50000043,-449.21870000,-82.70792000,-10.41154000,-0.14031740
3.58000043,-457.70790000,-97.67162000,-8.39689900,-0.16556960
3.66000043,-464.33620000,-114.86530000,-6.48991100,-0.19395910
3.74000043,-469.07290000,-134.44270000,-4.73671200,-0.22588580
3.82000043,-471.77960000,-156.35760000,-3.13730300,-0.26131890
3.90000043,-472.34860000,-180.22580000,-1.67630400,-0.29982780
3.98000043,-470.62620000,-205.52410000,-0.27682080,-0.34061270
4.06000043,-466.58150000,-231.52990000,1.07652500,-0.38259720
4.14000044,-460.21470000,-257.53560000,2.41449300,-0.42445870
4.22000044,-451.63320000,-282.88010000,3.70632400,-0.46490530
4.30000044,-441.16020000,-307.20960000,4.92125900,-0.50289120
4.38000044,-429.25690000,-330.30880000,5.99778500,-0.53752460
4.46000044,-416.40010000,-351.82390000,6.90514200,-0.56788260
4.54000044,-402.98960000,-371.44740000,7.59719500,-0.59331940
4.62000044,-389.30240000,-388.93330000,8.02780400,-0.61340430
4.70000044,-375.52290000,-404.09690000,8.16621500,-0.62795280
4.78000044,-361.65110000,-416.76920000,8.02780400,-0.63705710
4.86000045,-347.59470000,-426.90390000,7.64333200,-0.64102480
4.94000045,-333.18460000,-434.47030000,7.07431000,-0.64025590
5.02000045,-318.05180000,-439.51460000,6.39763700,-0.63521160
5.10000045,-301.98080000,-442.23670000,5.70558500,-0.62650720
5.18000045,-285.21770000,-442.82110000,5.04429100,-0.61460380
5.26000045,-268.16250000,-441.36010000,4.50602900,-0.59984000
5.34000045,-251.33800000,-437.88450000,4.07541800,-0.58236960
5.42000045,-235.28230000,-432.37880000,3.79859700,-0.56231550
5.50000045,-220.36480000,-424.79700000,3.64480800,-0.53970840
5.58000045,-206.80060000,-415.15440000,3.58329200,-0.51454850
5.66000046,-194.52820000,-403.46640000,3.59867100,-0.48702020
5.74000046,-183.24000000,-389.85600000,3.64480800,-0.45733880
5.82000046,-172.24410000,-374.46170000,3.72170300,-0.42587350
5.90000046,-160.87900000,-357.59100000,3.78321800,-0.39314710
5.98000046,-148.97580000,-339.73610000,3.84473400,-0.36011320
6.06000046,-136.58030000,-321.43510000,3.89087100,-0.32772510
6.14000046,-123.95420000,-303.18040000,3.90625000,-0.29696730
6.22000046,-111.46650000,-285.32540000,3.92162900,-0.26851620
6.30000046,-99.47096000,-268.13170000,3.93700800,-0.24289490
6.38000047,-88.24434000,-251.66090000,3.93700800,-0.22013410
6.46000047,-77.94044000,-235.82060000,3.95238700,-0.19998770
6.54000047,-68.54391000,-220.44170000,3.95238700,-0.18193280
6.62000047,-59.67027000,-205.09350000,3.95238700,-0.16501600
6.70000047,-50.99655000,-189.51460000,3.95238700,-0.14837600
6.78000047,-42.53814000,-173.88960000,3.93700800,-0.13198200
6.86000047,-34.46420000,-158.57220000,3.92162900,-0.11601870
6.94000047,-26.97465000,-144.08530000,3.92162900,-0.10107040
7.02000047,-20.34633000,-130.85940000,3.92162900,-0.08769070
7.10000048,-14.77916000,-119.30980000,3.92162900,-0.07643332
7.18000048,-10.41154000,-109.57490000,3.93700800,-0.06760581
7.26000048,-7.21272100,-101.57790000,3.95238700,-0.06120817
7.34000048,-5.04429100,-95.02644000,3.95238700,-0.05687131
7.42000048,-3.52177600,-89.21321000,3.95238700,-0.05370325
7.50000048,-2.33759800,-83.47687000,3.95238700,-0.05081201
7.58000048,-1.36872500,-77.60211000,3.93700800,-0.04779774
7.66000048,-0.59977850,-71.58894000,3.93700800,-0.04450664
7.74000048,-0.10765260,-65.63730000,3.92162900,-0.04100025
7.82000048,0.00000000,-60.00861000,3.90625000,-0.03746309
7.90000049,-0.39985230,-54.97970000,3.89087100,-0.03414124
7.98000049,-1.36872500,-50.79662000,3.84473400,-0.03128076
8.06000049,-2.89124000,-47.49015000,3.78321800,-0.02900467
8.14000049,-4.89050100,-44.96801000,3.72170300,-0.02737451
8.22000049,-7.13582600,-42.84571000,3.64480800,-0.02614419
8.30000049,-9.39653000,-40.67728000,3.59867100,-0.02509842
8.38000049,-11.51882000,-38.29355000,3.59867100,-0.02426796
8.46000049,-13.42581000,-35.64837000,3.66018700,-0.02368356
8.54000049,-15.02522000,-32.81865000,3.81397600,-0.02346826
8.62000050,-16.27091000,-29.94279000,4.06003900,-0.02371432
8.70000050,-17.20903000,-27.20534000,4.41375400,-0.02451403
8.78000050,-17.85494000,-24.71395000,4.85974400,-0.02586737
8.86000050,-18.27018000,-22.53014000,5.38262700,-0.02771284
8.94000050,-18.53162000,-20.65391000,5.92089000,-0.02992741
9.02000050,-18.67003000,-18.86995000,6.47453200,-0.03223425
9.10000050,-18.76230000,-16.96297000,6.96665800,-0.03441806
9.18000050,-18.88533000,-14.77916000,7.38188900,-0.03629429
9.26000050,-19.08526000,-12.25701000,7.67408900,-0.03780143
9.34000051,-19.40822000,-9.39653000,7.82787800,-0.03887795
9.42000051,-19.85421000,-6.22846900,7.82787800,-0.03946235
9.50000051,-20.39247000,-2.86048200,7.67408900,-0.03964690
9.58000051,-21.00763000,0.63053640,7.38188900,-0.03946235
9.66000051,-21.65354000,4.15231300,6.96665800,-0.03893947
9.74000051,-22.28408000,7.58181600,6.47453200,-0.03820128
9.82000051,-22.82234000,10.91905000,5.92089000,-0.03724778
9.90000051,-23.23757000,14.13324000,5.38262700,-0.03610975
9.98000051,-23.51439000,17.16289000,4.87512300,-0.03484867
10.06000051,-23.63743000,19.94648000,4.42913300,-0.03346457
10.14000052,-23.59129000,22.42249000,4.07541800,-0.03208046
10.22000052,-23.43750000,24.56016000,3.78321800,-0.03069636
10.30000052,-23.19143000,26.34412000,3.56791300,-0.02934301
10.38000052,-22.85310000,27.75898000,3.39874500,-0.02805118
10.46000052,-22.45325000,28.82013000,3.27571300,-0.02675935
10.54000052,-21.96112000,29.54294000,3.16806100,-0.02546752
10.62000052,-21.34596000,29.95817000,3.10654500,-0.02411417
10.70000052,-20.54626000,30.05044000,3.09116600,-0.02260704
10.78000052,-19.50049000,29.78900000,3.15268200,-0.02088460
10.86000053,-18.19328000,29.15846000,3.33722900,-0.01894685
10.94000053,-16.59387000,28.12807000,3.67556500,-0.01682456
11.02000053,-14.71764000,26.68245000,4.21382900,-0.01451772
11.10000053,-12.59535000,24.82160000,4.95201700,-0.01211860
11.18000053,-10.27313000,22.59166000,5.89013200,-0.00962722
11.26000053,-7.79712100,20.03875000,6.96665800,-0.00713583
11.34000053,-5.24421700,17.22441000,8.13545700,-0.00464444
11.42000053,-2.66055600,14.22552000,9.28887700,-0.00218381
11.50000053,-0.07689468,11.10359000,10.33464000,0.00024606
11.58000053,2.41449300,7.92015200,11.16511000,0.00261442
11.66000054,4.76747000,4.72133400,11.68799000,0.00485974
