Time,Channel A,Channel B,Channel C,Channel D
(ns),(mV),(mV),(mV),(V)

-15.27164183,-0.13841040,-0.01537894,4.04466000,0.00003076
-15.19164182,-0.49212600,-0.16916830,4.21382900,0.00036909
-15.11164182,-0.93811510,-0.49212600,4.29072300,0.00098425
-15.03164182,-1.43024100,-0.92273620,4.29072300,0.00184547
-14.95164182,-1.96850400,-1.43024100,4.25996500,0.00286048
-14.87164182,-2.52214600,-1.98388300,4.18307100,0.00396777
-14.79164182,-3.01427100,-2.50676700,4.10617600,0.00501353
-14.71164182,-3.44488200,-2.99889300,4.02928100,0.00602854
-14.63164182,-3.73708200,-3.42950300,3.96776600,0.00688976
-14.55164182,-3.90625000,-3.78321800,3.93700800,0.00756644
-14.47164181,-3.90625000,-4.04466000,3.92162900,0.00805856
-14.39164181,-3.73708200,-4.24458600,3.92162900,0.00839690
-14.31164181,-3.44488200,-4.36761800,3.93700800,0.00855069
-14.23164181,-3.01427100,-4.45989200,3.93700800,0.00858145
-14.15164181,-2.52214600,-4.49065000,3.95238700,0.00851993
-14.07164181,-1.96850400,-4.49065000,3.95238700,0.00836614
-13.99164181,-1.43024100,-4.44451300,3.95238700,0.00821235
-13.91164181,-0.92273620,-4.36761800,3.93700800,0.00805856
-13.83164181,-0.49212600,-4.22920700,3.92162900,0.00793553
-13.75164180,-0.13841040,-4.04466000,3.92162900,0.00787402
-13.67164180,0.10765260,-3.78321800,3.92162900,0.00784326
-13.59164180,0.27682080,-3.47564000,3.92162900,0.00784326
-13.51164180,0.33833660,-3.10654500,3.93700800,0.00787402
-13.43164180,0.35371550,-2.67593500,3.95238700,0.00787402
-13.35164180,0.30757870,-2.21456700,3.95238700,0.00790477
-13.27164180,0.23068400,-1.73782000,3.95238700,0.00790477
-13.19164180,0.16916830,-1.27645200,3.93700800,0.00790477
-13.11164180,0.10765260,-0.83046260,3.93700800,0.00787402
-13.03164180,0.04613681,-0.46136810,3.92162900,0.00784326
-12.95164179,0.01537894,-0.13841040,3.92162900,0.00784326
-12.87164179,-0.01537894,0.12303150,3.93700800,0.00784326
-12.79164179,-0.04613681,0.30757870,3.96776600,0.00784326
-12.71164179,-0.10765260,0.43061020,4.02928100,0.00787402
-12.63164179,-0.16916830,0.50750490,4.10617600,0.00790477
-12.55164179,-0.23068400,0.53826270,4.18307100,0.00790477
-12.47164179,-0.30757870,0.53826270,4.25996500,0.00790477
-12.39164179,-0.35371550,0.50750490,4.29072300,0.00787402
-12.31164179,-0.33833660,0.43061020,4.27534400,0.00787402
-12.23164178,-0.27682080,0.30757870,4.18307100,0.00784326
-12.15164178,-0.10765260,0.12303150,4.02928100,0.00784326
-12.07164178,0.13841040,-0.13841040,3.79859700,0.00787402
-11.99164178,0.49212600,-0.46136810,3.49101900,0.00793553
-11.91164178,0.92273620,-0.83046260,3.10654500,0.00805856
-11.83164178,1.43024100,-1.27645200,2.67593500,0.00821235
-11.75164178,1.96850400,-1.73782000,2.21456700,0.00836614
-11.67164178,2.52214600,-2.21456700,1.73782000,0.00851993
-11.59164178,3.01427100,-2.67593500,1.26107300,0.00858145
-11.51164177,3.44488200,-3.10654500,0.83046260,0.00855069
-11.43164177,3.73708200,-3.49101900,0.44598910,0.00836614
-11.35164177,3.90625000,-3.79859700,0.12303150,0.00805856
-11.27164177,3.90625000,-4.02928100,-0.10765260,0.00759720
-11.19164177,3.73708200,-4.18307100,-0.26144190,0.00698204
-11.11164177,3.44488200,-4.27534400,-0.33833660,0.00621309
-11.03164177,3.01427100,-4.29072300,-0.33833660,0.00535187
-10.95164177,2.52214600,-4.25996500,-0.30757870,0.00442913
-10.87164177,1.96850400,-4.18307100,-0.23068400,0.00347564
-10.79164177,1.43024100,-4.10617600,-0.15378940,0.00252215
-10.71164176,0.92273620,-4.02928100,-0.09227362,0.00166093
-10.63164176,0.49212600,-3.96776600,-0.03075787,0.00089198
-10.55164176,0.13841040,-3.93700800,0.00000000,0.00024606
-10.47164176,-0.10765260,-3.92162900,0.00000000,-0.00021531
-10.39164176,-0.27682080,-3.92162900,-0.03075787,-0.00052288
-10.31164176,-0.33833660,-3.93700800,-0.09227362,-0.00067667
-10.23164176,-0.35371550,-3.93700800,-0.15378940,-0.00067667
-10.15164176,-0.30757870,-3.95238700,-0.23068400,-0.00061516
-10.07164176,-0.23068400,-3.95238700,-0.30757870,-0.00046137
-9.99164175,-0.16916830,-3.95238700,-0.33833660,-0.00030758
-9.91164175,-0.09227362,-3.93700800,-0.33833660,-0.00018455
-9.83164175,-0.04613681,-3.92162900,-0.26144190,-0.00006152
-9.75164175,-0.01537894,-3.92162900,-0.10765260,0.00000000
-9.67164175,0.00000000,-3.92162900,0.12303150,0.00000000
-9.59164175,0.01537894,-3.92162900,0.44598910,-0.00006152
-9.51164175,0.00000000,-3.93700800,0.83046260,-0.00018455
-9.43164175,0.00000000,-3.95238700,1.26107300,-0.00030758
-9.35164175,0.00000000,-3.95238700,1.73782000,-0.00046137
-9.27164174,0.00000000,-3.95238700,2.21456700,-0.00061516
-9.19164174,0.00000000,-3.93700800,2.67593500,-0.00067667
-9.11164174,0.00000000,-3.92162900,3.10654500,-0.00067667
-9.03164174,0.00000000,-3.90625000,3.49101900,-0.00052288
-8.95164174,0.00000000,-3.90625000,3.79859700,-0.00021531
-8.87164174,0.00000000,-3.93700800,4.02928100,0.00024606
-8.79164174,0.00000000,-4.01390200,4.18307100,0.00089198
-8.71164174,0.00000000,-4.12155500,4.27534400,0.00166093
-8.63164174,0.00000000,-4.27534400,4.29072300,0.00252215
-8.55164174,0.00000000,-4.42913300,4.25996500,0.00347564
-8.47164173,0.00000000,-4.56754400,4.18307100,0.00442913
-8.39164173,0.00000000,-4.62906000,4.10617600,0.00535187
-8.31164173,0.00000000,-4.61368100,4.02928100,0.00621309
-8.23164173,0.00000000,-4.45989200,3.96776600,0.00698204
-8.15164173,0.00000000,-4.13693400,3.93700800,0.00759720
-8.07164173,0.00000000,-3.66018700,3.92162900,0.00805856
-7.99164173,0.00000000,-2.99889300,3.92162900,0.00836614
-7.91164173,0.00000000,-2.18380900,3.93700800,0.00855069
-7.83164173,0.00000000,-1.24569400,3.93700800,0.00858145
-7.75164172,0.00000000,-0.24606300,3.95238700,0.00851993
-7.67164172,0.00000000,0.78432570,3.95238700,0.00836614
-7.59164172,0.00000000,1.75319900,3.95238700,0.00821235
-7.51164172,0.00000000,2.59904000,3.93700800,0.00805856
-7.43164172,0.00000000,3.29109200,3.92162900,0.00793553
-7.35164172,0.00000000,3.76783900,3.92162900,0.00784326
-7.27164172,0.00000000,4.01390200,3.92162900,0.00784326
-7.19164172,0.00000000,4.04466000,3.92162900,0.00793553
-7.11164172,0.00000000,3.87549200,3.93700800,0.00805856
-7.03164172,0.00000000,3.52177600,3.95238700,0.00821235
-6.95164171,0.00000000,3.06040800,3.95238700,0.00836614
-6.87164171,0.00000000,2.52214600,3.95238700,0.00851993
-6.79164171,0.00000000,1.93774600,3.93700800,0.00858145
-6.71164171,0.00000000,1.36872500,3.93700800,0.00855069
-6.63164171,0.01537894,0.79970470,3.92162900,0.00839690
-6.55164171,0.00000000,0.26144190,3.92162900,0.00805856
-6.47164171,-0.01537894,-0.26144190,3.93700800,0.00756644
-6.39164171,-0.04613681,-0.76894680,3.96776600,0.00688976
-6.31164171,-0.09227362,-1.27645200,4.02928100,0.00602854
-6.23164170,-0.16916830,-1.78395700,4.10617600,0.00501353
-6.15164170,-0.23068400,-2.27608300,4.18307100,0.00396777
-6.07164170,-0.30757870,-2.75283000,4.25996500,0.00286048
-5.99164170,-0.35371550,-3.18344000,4.29072300,0.00184547
-5.91164170,-0.33833660,-3.53715500,4.27534400,0.00098425
-5.83164170,-0.27682080,-3.78321800,4.19845000,0.00036909
-5.75164170,-0.10765260,-3.90625000,4.02928100,0.00003076
-5.67164170,0.13841040,-3.89087100,3.78321800,0.00003076
-5.59164170,0.49212600,-3.73708200,3.44488200,0.00036909
-5.51164169,0.92273620,-3.42950300,3.01427100,0.00098425
-5.43164169,1.43024100,-3.01427100,2.50676700,0.00184547
-5.35164169,1.96850400,-2.52214600,1.98388300,0.00286048
-5.27164169,2.52214600,-1.96850400,1.43024100,0.00396777
-5.19164169,3.01427100,-1.43024100,0.92273620,0.00501353
-5.11164169,3.44488200,-0.93811510,0.49212600,0.00599779
-5.03164169,3.73708200,-0.49212600,0.18454720,0.00685901
-4.95164169,3.90625000,-0.13841040,0.01537894,0.00756644
-4.87164169,3.90625000,0.12303150,0.01537894,0.00808932
-4.79164169,3.73708200,0.30757870,0.18454720,0.00848917
-4.71164168,3.44488200,0.43061020,0.49212600,0.00873524
-4.63164168,3.01427100,0.50750490,0.92273620,0.00891978
-4.55164168,2.52214600,0.53826270,1.43024100,0.00898130
-4.47164168,1.96850400,0.53826270,1.98388300,0.00898130
-4.39164168,1.43024100,0.50750490,2.52214600,0.00891978
-4.31164168,0.92273620,0.43061020,3.01427100,0.00873524
-4.23164168,0.47674700,0.30757870,3.44488200,0.00848917
-4.15164168,0.13841040,0.12303150,3.78321800,0.00808932
-4.07164168,-0.10765260,-0.13841040,4.02928100,0.00756644
-3.99164167,-0.23068400,-0.46136810,4.15231300,0.00685901
-3.91164167,-0.24606300,-0.83046260,4.18307100,0.00599779
-3.83164167,-0.18454720,-1.27645200,4.13693400,0.00501353
-3.75164167,-0.06151574,-1.73782000,4.01390200,0.00396777
-3.67164167,0.06151574,-2.21456700,3.89087100,0.00286048
-3.59164167,0.18454720,-2.67593500,3.76783900,0.00184547
-3.51164167,0.24606300,-3.10654500,3.69094500,0.00098425
-3.43164167,0.21530510,-3.49101900,3.70632400,0.00036909
-3.35164167,0.09227362,-3.79859700,3.81397600,0.00003076
-3.27164166,-0.12303150,-4.02928100,4.06003900,0.00003076
-3.19164166,-0.43061020,-4.18307100,4.39837600,0.00036909
-3.11164166,-0.83046260,-4.27534400,4.85974400,0.00098425
-3.03164166,-1.26107300,-4.29072300,5.36724900,0.00184547
-2.95164166,-1.73782000,-4.25996500,5.92089000,0.00286048
-2.87164166,-2.21456700,-4.18307100,6.47453200,0.00396777
-2.79164166,-2.67593500,-4.10617600,6.96665800,0.00501353
-2.71164166,-3.10654500,-4.02928100,7.38188900,0.00602854
-2.63164166,-3.47564000,-3.96776600,7.67408900,0.00688976
-2.55164166,-3.78321800,-3.93700800,7.82787800,0.00756644
-2.47164165,-4.04466000,-3.92162900,7.81250000,0.00805856
-2.39164165,-4.22920700,-3.92162900,7.62795300,0.00839690
-2.31164165,-4.36761800,-3.93700800,7.28961600,0.00855069
-2.23164165,-4.44451300,-3.93700800,6.79749000,0.00858145
-2.15164165,-4.49065000,-3.95238700,6.22846900,0.00851993
-2.07164165,-4.49065000,-3.95238700,5.62869100,0.00836614
-1.99164165,-4.44451300,-3.95238700,5.02891200,0.00821235
-1.91164165,-4.36761800,-3.93700800,4.53678600,0.00805856
-1.83164165,-4.22920700,-3.92162900,4.16769200,0.00793553
-1.75164164,-4.04466000,-3.92162900,3.96776600,0.00787402
-1.67164164,-3.78321800,-3.92162900,3.92162900,0.00784326
-1.59164164,-3.47564000,-3.92162900,4.01390200,0.00784326
-1.51164164,-3.10654500,-3.93700800,4.22920700,0.00787402
-1.43164164,-2.67593500,-3.95238700,4.53678600,0.00787402
-1.35164164,-2.21456700,-3.95238700,4.90588000,0.00790477
-1.27164164,-1.73782000,-3.95238700,5.32111200,0.00790477
-1.19164164,-1.26107300,-3.95238700,5.90551100,0.00787402
-1.11164164,-0.83046260,-3.93700800,6.70521600,0.00787402
-1.03164163,-0.44598910,-3.92162900,7.48954200,0.00784326
-0.95164163,-0.12303150,-3.92162900,7.90477300,0.00784326
-0.87164163,0.10765260,-3.92162900,7.55105800,0.00787402
-0.79164163,0.26144190,-3.92162900,6.12081600,0.00793553
-0.71164163,0.33833660,-3.93700800,3.50639700,0.00805856
-0.63164163,0.33833660,-3.95238700,-0.10765260,0.00821235
-0.55164163,0.30757870,-3.95238700,-4.18307100,0.00836614
-0.47164163,0.23068400,-3.95238700,-7.81250000,0.00851993
-0.39164163,0.15378940,-3.93700800,-9.70410800,0.00858145
-0.31164163,0.06151574,-3.93700800,-8.41227800,0.00855069
-0.23164162,-0.01537894,-3.92162900,-2.75283000,0.00839690
-0.15164162,-0.03075787,-3.92162900,8.12007800,0.00805856
-0.07164162,0.04613681,-3.93700800,24.68319000,0.00756644
0.00835838,0.24606300,-3.96776600,46.78272000,0.00688976
0.08835838,0.56902060,-4.02928100,73.75738000,0.00602854
0.16835838,0.96887300,-4.10617600,104.39220000,0.00501353
0.24835838,1.41486200,-4.18307100,137.11860000,0.00396777
0.32835838,1.83009300,-4.25996500,170.12180000,0.00286048
0.40835838,1.99926200,-4.29072300,201.55630000,0.00184547
0.48835839,1.78395700,-4.27534400,229.79210000,0.00098425
0.56835839,1.23031500,-4.18307100,253.44490000,0.00036909
0.64835839,0.43061020,-4.02928100,271.62280000,0.00003076
0.72835839,-0.41523130,-3.79859700,283.86440000,0.00003076
0.80835839,-1.15342000,-3.49101900,290.26200000,0.00036909
0.88835839,-1.66092500,-3.10654500,291.26170000,0.00098425
0.96835839,-1.92236700,-2.67593500,287.66300000,0.00184547
1.04835839,-2.13767200,-2.21456700,280.35800000,0.00286048
1.12835839,-2.62979800,-1.73782000,270.30020000,0.00396777
1.20835839,-4.13693400,-1.27645200,258.28920000,0.00501353
1.28835840,-7.30499500,-0.87659940,244.94030000,0.00593627
1.36835840,-12.39542000,-0.50750490,230.66870000,0.00676673
1.44835840,-19.39284000,-0.16916830,215.65880000,0.00750492
1.52835840,-28.03580000,0.18454720,199.92620000,0.00818159
1.60835840,-37.92445000,0.56902060,183.40920000,0.00891978
1.68835840,-48.61282000,0.99963080,166.03100000,0.00968873
1.76835840,-59.74717000,1.47637800,147.80690000,0.01051919
1.84835840,-71.20448000,1.96850400,128.86010000,0.01134966
1.92835840,-83.16928000,2.36835600,109.51340000,0.01202633
2.00835841,-96.33366000,2.47600900,90.21284000,0.01218012
2.08835841,-111.54340000,2.13767200,71.52744000,0.01156496
2.16835841,-129.25990000,1.39948300,54.07234000,0.01027313
2.24835841,-149.63710000,0.46136810,38.40120000,0.00864296
2.32835841,-172.61320000,-0.43061020,24.94463000,0.00710507
2.40835841,-197.77310000,-1.04576800,13.91794000,0.00602854
2.48835841,-224.51710000,-1.26107300,5.33649100,0.00569021
2.56835841,-252.07610000,-1.09190400,-1.04576800,0.00596703
2.64835841,-279.65060000,-0.79970470,-5.61331200,0.00645915
2.72835842,-306.56370000,-0.89197830,-9.04281500,0.00627461
2.80835842,-332.50800000,-2.32221900,-11.91868000,0.00384473
2.88835842,-357.28340000,-5.99778500,-14.48696000,-0.00242987
2.96835842,-380.53640000,-12.42618000,-16.80918000,-0.01341043
3.04835842,-401.94390000,-21.74582000,-18.80844000,-0.02937377
3.12835842,-421.18290000,-33.81828000,-20.25406000,-0.05019685
3.20835842,-438.02290000,-48.24372000,-20.94611000,-0.07523376
3.28835842,-452.26370000,-64.43774000,-20.71543000,-0.10350020
3.36835842,-463.78260000,-81.83131000,-19.53125000,-0.13398130
3.44835842,-472.59470000,-99.94771000,-17.47047000,-0.16578490
3.52835843,-478.80780000,-118.57160000,-14.90219000,-0.19838830
3.60835843,-482.74480000,-137.94910000,-12.16474000,-0.23188360
3.68835843,-484.77480000,-158.51070000,-9.50418300,-0.26679380
3.76835843,-485.08240000,-180.39490000,-7.04355200,-0.30321110
3.84835843,-483.74440000,-203.63250000,-4.89050100,-0.34125860
3.92835843,-480.74550000,-228.10040000,-3.02965000,-0.38081320
4.00835843,-476.00880000,-253.46020000,-1.43024100,-0.42159820
4.08835843,-469.42660000,-279.23540000,-0.01537894,-0.46293680
4.16835843,-460.90670000,-304.88740000,1.26107300,-0.50393700
4.24835844,-450.43370000,-329.77050000,2.47600900,-0.54352240
4.32835844,-438.03820000,-353.34640000,3.64480800,-0.58058560
4.40835844,-423.95110000,-375.29220000,4.73671200,-0.61408100
4.48835844,-408.69520000,-395.39250000,5.75172200,-0.64308560
4.56835844,-392.76260000,-413.27810000,6.68983700,-0.66670770
4.64835844,-376.67630000,-428.68780000,7.48954200,-0.68411660
4.72835844,-360.83600000,-441.37550000,8.15083600,-0.69488190
4.80835844,-345.50320000,-451.14110000,8.64296200,-0.69881890
4.88835844,-330.73940000,-457.92320000,8.95054100,-0.69611220
4.96835845,-316.40620000,-461.73720000,9.07357200,-0.68728470
5.04835845,-302.24220000,-462.67530000,9.05819300,-0.67310530
5.12835845,-287.70910000,-460.90670000,8.91978400,-0.65446600
5.20835845,-272.40710000,-456.76980000,8.71985600,-0.63241270
5.28835845,-256.39760000,-450.60280000,8.48917200,-0.60799090
5.36835845,-240.00370000,-442.62120000,8.24311000,-0.58200050
5.44835845,-223.68660000,-432.96320000,7.98166800,-0.55502580
5.52835845,-207.98470000,-421.72120000,7.70484700,-0.52740530
5.60835845,-193.28250000,-408.86440000,7.38188900,-0.49920030
5.68835845,-179.85670000,-394.43900000,7.02817400,-0.47044170
5.76835846,-167.70730000,-378.46020000,6.61294300,-0.44097560
5.84835846,-156.60370000,-361.05130000,6.16695300,-0.41077140
5.92835846,-145.88460000,-342.31970000,5.69020700,-0.37967520
6.00835846,-134.91940000,-322.58860000,5.21345900,-0.34793310
6.08835846,-123.53900000,-302.50370000,4.76747000,-0.31622170
6.16835846,-111.82020000,-282.69560000,4.36761800,-0.28546380
6.24835846,-99.99384000,-263.85640000,4.04466000,-0.25661300
6.32835846,-88.38274000,-246.46280000,3.81397600,-0.23053030
6.40835846,-77.32529000,-230.83780000,3.66018700,-0.20773870
6.48835847,-67.08292000,-216.99680000,3.59867100,-0.18839200
6.56835847,-57.77866000,-204.73980000,3.59867100,-0.17227490
6.64835847,-49.39714000,-193.65160000,3.64480800,-0.15871060
6.72835847,-41.61540000,-183.00930000,3.72170300,-0.14656130
6.80835847,-34.14124000,-172.16720000,3.78321800,-0.13468870
6.88835847,-27.00541000,-161.04820000,3.84473400,-0.12281620
6.96835847,-20.34633000,-149.79080000,3.89087100,-0.11097440
7.04835847,-14.39468000,-138.71800000,3.90625000,-0.09953248
7.12835847,-9.39653000,-128.19880000,3.92162900,-0.08904404
7.20835848,-5.55179600,-118.64850000,3.93700800,-0.07993972
7.28835848,-2.92199800,-110.26700000,3.93700800,-0.07261934
7.36835848,-1.47637800,-103.13110000,3.95238700,-0.06717519
7.44835848,-1.04576800,-97.05647000,3.95238700,-0.06339198
7.52835848,-1.24569400,-91.52005000,3.95238700,-0.06050074
7.60835848,-1.69168300,-85.99901000,3.95238700,-0.05776329
7.68835848,-2.26070400,-80.38570000,3.93700800,-0.05493356
7.76835848,-2.87586100,-74.72625000,3.92162900,-0.05185778
7.84835848,-3.55253400,-69.26672000,3.92162900,-0.04865896
7.92835848,-4.33686000,-64.23782000,3.92162900,-0.04549089
8.00835849,-5.35187000,-59.91634000,3.92162900,-0.04259966
8.08835849,-6.62832200,-56.45607000,3.93700800,-0.04013903
8.16835849,-8.21235200,-53.85703000,3.95238700,-0.03820128
8.24835849,-10.05782000,-51.98080000,3.95238700,-0.03681717
8.32835849,-12.02633000,-50.39677000,3.95238700,-0.03574065
8.40835849,-13.99483000,-48.65895000,3.95238700,-0.03469488
8.48835849,-15.85568000,-46.52128000,3.93700800,-0.03367987
8.56835849,-17.54737000,-43.92224000,3.93700800,-0.03269562
8.64835849,-18.99298000,-40.87721000,3.92162900,-0.03177289
8.72835850,-20.16179000,-37.50923000,3.90625000,-0.03103469
8.80835850,-21.02301000,-34.00283000,3.89087100,-0.03051181
8.88835850,-21.57665000,-30.51181000,3.84473400,-0.03023499
8.96835850,-21.88423000,-27.11306000,3.78321800,-0.03020423
9.04835850,-22.00726000,-23.88349000,3.72170300,-0.03038878
9.12835850,-22.00726000,-20.66929000,3.64480800,-0.03066560
9.20835850,-22.00726000,-17.33206000,3.59867100,-0.03091166
9.28835850,-22.13029000,-13.79491000,3.59867100,-0.03106545
9.36835850,-22.46863000,-10.01169000,3.66018700,-0.03118848
9.44835851,-23.09916000,-5.99778500,3.81397600,-0.03131152
9.52835851,-24.05266000,-1.79933500,4.06003900,-0.03146530
9.60835851,-25.29835000,2.52214600,4.41375400,-0.03171137
9.68835851,-26.80548000,6.88976300,4.85974400,-0.03208046
9.76835851,-28.46641000,11.21124000,5.38262700,-0.03254183
9.84835851,-30.17347000,15.37894000,5.92089000,-0.03303396
9.92835851,-31.80364000,19.33132000,6.47453200,-0.03343381
10.00835851,-33.23388000,22.97613000,6.96665800,-0.03361836
10.08835851,-34.32578000,26.17495000,7.38188900,-0.03346457
10.16835851,-35.03321000,28.78937000,7.67408900,-0.03294168
10.24835852,-35.31004000,30.71173000,7.82787800,-0.03198819
10.32835852,-35.18700000,31.84978000,7.81250000,-0.03066560
10.40835852,-34.69488000,32.20350000,7.62795300,-0.02900467
10.48835852,-33.86442000,31.78826000,7.28961600,-0.02706693
10.56835852,-32.75713000,30.71173000,6.79749000,-0.02491388
10.64835852,-31.41917000,29.06619000,6.22846900,-0.02260704
10.72835852,-29.85052000,27.02079000,5.62869100,-0.02014641
10.80835852,-28.03580000,24.72933000,5.02891200,-0.01756275
10.88835852,-25.95964000,22.25332000,4.52140800,-0.01485605
10.96835853,-23.60667000,19.66966000,4.15231300,-0.01205709
11.04835853,-21.00763000,17.02448000,3.95238700,-0.00925812
11.12835853,-18.16252000,14.33317000,3.95238700,-0.00645915
11.20835853,-15.14825000,11.59572000,4.15231300,-0.00372170
11.28835853,-11.96481000,8.81213000,4.52140800,-0.00107653
11.36835853,-8.68909800,5.99778500,5.02891200,0.00147638
11.44835853,-5.35187000,3.13730300,5.62869100,0.00387549
11.52835853,-2.01464100,0.27682080,6.22846900,0.00618233
11.60835853,1.30720900,-2.56828200,6.81286900,0.00845842
11.68835853,4.53678600,-5.36724900,7.28961600,0.01067298
