Time,Channel A,Channel B,Channel C,Channel D
(ns),(mV),(mV),(mV),(V)

-15.43225883,3.90625000,-4.04466000,3.92162900,0.00027682
-15.35225882,3.73708200,-4.24458600,3.92162900,0.00092274
-15.27225882,3.44488200,-4.36761800,3.93700800,0.00166093
-15.19225882,3.01427100,-4.45989200,3.95238700,0.00255290
-15.11225882,2.52214600,-4.49065000,3.95238700,0.00347564
-15.03225882,1.96850400,-4.49065000,3.95238700,0.00442913
-14.95225882,1.43024100,-4.44451300,3.95238700,0.00535187
-14.87225882,0.92273620,-4.36761800,3.93700800,0.00621309
-14.79225882,0.49212600,-4.22920700,3.92162900,0.00695128
-14.71225882,0.13841040,-4.04466000,3.92162900,0.00756644
-14.63225881,-0.10765260,-3.78321800,3.92162900,0.00808932
-14.55225881,-0.27682080,-3.47564000,3.92162900,0.00845842
-14.47225881,-0.33833660,-3.10654500,3.93700800,0.00873524
-14.39225881,-0.35371550,-2.67593500,3.95238700,0.00888903
-14.31225881,-0.30757870,-2.21456700,3.95238700,0.00898130
-14.23225881,-0.23068400,-1.73782000,3.95238700,0.00898130
-14.15225881,-0.16916830,-1.27645200,3.95238700,0.00888903
-14.07225881,-0.09227362,-0.83046260,3.93700800,0.00873524
-13.99225881,-0.04613681,-0.46136810,3.92162900,0.00845842
-13.91225880,-0.01537894,-0.13841040,3.92162900,0.00808932
-13.83225880,0.00000000,0.12303150,3.92162900,0.00756644
-13.75225880,0.01537894,0.30757870,3.92162900,0.00695128
-13.67225880,0.00000000,0.43061020,3.93700800,0.00621309
-13.59225880,0.00000000,0.50750490,3.95238700,0.00535187
-13.51225880,0.00000000,0.53826270,3.95238700,0.00442913
-13.43225880,0.00000000,0.53826270,3.95238700,0.00347564
-13.35225880,0.00000000,0.50750490,3.95238700,0.00255290
-13.27225880,0.00000000,0.43061020,3.93700800,0.00166093
-13.19225880,0.00000000,0.30757870,3.92162900,0.00092274
-13.11225879,0.00000000,0.12303150,3.92162900,0.00027682
-13.03225879,0.00000000,-0.13841040,3.92162900,-0.00024606
-12.95225879,0.00000000,-0.46136810,3.92162900,-0.00061516
-12.87225879,0.00000000,-0.83046260,3.93700800,-0.00086122
-12.79225879,0.00000000,-1.27645200,3.95238700,-0.00101501
-12.71225879,0.00000000,-1.73782000,3.95238700,-0.00107653
-12.63225879,0.00000000,-2.21456700,3.95238700,-0.00107653
-12.55225879,0.00000000,-2.67593500,3.95238700,-0.00101501
-12.47225879,0.00000000,-3.10654500,3.93700800,-0.00086122
-12.39225878,0.00000000,-3.49101900,3.92162900,-0.00061516
-12.31225878,0.00000000,-3.79859700,3.92162900,-0.00024606
-12.23225878,0.00000000,-4.01390200,3.92162900,0.00027682
-12.15225878,0.00000000,-4.15231300,3.92162900,0.00098425
-12.07225878,0.00000000,-4.18307100,3.93700800,0.00187623
-11.99225878,0.00000000,-4.12155500,3.95238700,0.00286048
-11.91225878,0.00000000,-4.01390200,3.95238700,0.00393701
-11.83225878,0.00000000,-3.89087100,3.95238700,0.00504429
-11.75225878,0.00000000,-3.76783900,3.95238700,0.00602854
-11.67225877,0.00000000,-3.69094500,3.93700800,0.00688976
-11.59225877,0.00000000,-3.70632400,3.92162900,0.00747416
-11.51225877,0.00000000,-3.81397600,3.92162900,0.00781250
-11.43225877,0.00000000,-4.06003900,3.92162900,0.00781250
-11.35225877,0.00000000,-4.39837600,3.92162900,0.00747416
-11.27225877,0.00000000,-4.85974400,3.93700800,0.00688976
-11.19225877,0.00000000,-5.36724900,3.95238700,0.00602854
-11.11225877,0.00000000,-5.92089000,3.95238700,0.00504429
-11.03225877,0.00000000,-6.47453200,3.95238700,0.00393701
-10.95225877,0.00000000,-6.96665800,3.93700800,0.00286048
-10.87225876,0.00000000,-7.36651000,3.93700800,0.00184547
-10.79225876,0.00000000,-7.65871000,3.92162900,0.00098425
-10.71225876,0.00000000,-7.81250000,3.92162900,0.00027682
-10.63225876,0.00000000,-7.82787800,3.93700800,-0.00021531
-10.55225876,0.00000000,-7.72022600,3.96776600,-0.00055364
-10.47225876,0.00000000,-7.47416300,4.02928100,-0.00067667
-10.39225876,0.00000000,-7.13582600,4.10617600,-0.00070743
-10.31225876,0.00000000,-6.70521600,4.18307100,-0.00061516
-10.23225876,0.00000000,-6.22846900,4.25996500,-0.00046137
-10.15225875,0.00000000,-5.72096400,4.29072300,-0.00030758
-10.07225875,0.00000000,-5.19808000,4.27534400,-0.00018455
-9.99225875,0.00000000,-4.67519700,4.19845000,-0.00006152
-9.91225875,0.00000000,-4.16769200,4.02928100,0.00000000
-9.83225875,0.00000000,-3.67556500,3.78321800,0.00000000
-9.75225875,0.00000000,-3.21419800,3.44488200,-0.00006152
-9.67225875,0.00000000,-2.76820900,3.01427100,-0.00018455
-9.59225875,0.00000000,-2.33759800,2.50676700,-0.00030758
-9.51225875,0.00000000,-1.90698800,1.98388300,-0.00046137
-9.43225874,0.00000000,-1.50713600,1.43024100,-0.00061516
-9.35225874,0.00000000,-1.10728300,0.92273620,-0.00067667
-9.27225874,0.00000000,-0.73818890,0.49212600,-0.00067667
-9.19225874,0.00000000,-0.39985230,0.18454720,-0.00052288
-9.11225874,0.00000000,-0.12303150,0.01537894,-0.00021531
-9.03225874,0.00000000,0.10765260,0.01537894,0.00024606
-8.95225874,0.00000000,0.24606300,0.18454720,0.00089198
-8.87225874,0.00000000,0.32295760,0.49212600,0.00166093
-8.79225874,0.00000000,0.33833660,0.92273620,0.00252215
-8.71225874,0.00000000,0.30757870,1.43024100,0.00347564
-8.63225873,0.00000000,0.23068400,1.98388300,0.00442913
-8.55225873,0.00000000,0.16916830,2.50676700,0.00535187
-8.47225873,0.00000000,0.09227362,2.99889300,0.00621309
-8.39225873,0.01537894,0.04613681,3.42950300,0.00698204
-8.31225873,0.00000000,0.01537894,3.78321800,0.00759720
-8.23225873,-0.01537894,0.00000000,4.04466000,0.00805856
-8.15225873,-0.04613681,-0.01537894,4.24458600,0.00836614
-8.07225873,-0.09227362,0.00000000,4.36761800,0.00855069
-7.99225873,-0.16916830,0.00000000,4.45989200,0.00858145
-7.91225872,-0.23068400,0.00000000,4.49065000,0.00851993
-7.83225872,-0.30757870,0.00000000,4.49065000,0.00836614
-7.75225872,-0.35371550,0.00000000,4.45989200,0.00821235
-7.67225872,-0.33833660,0.00000000,4.36761800,0.00805856
-7.59225872,-0.27682080,-0.01537894,4.24458600,0.00793553
-7.51225872,-0.10765260,0.00000000,4.04466000,0.00787402
-7.43225872,0.13841040,0.01537894,3.78321800,0.00784326
-7.35225872,0.49212600,0.04613681,3.42950300,0.00784326
-7.27225872,0.92273620,0.09227362,2.99889300,0.00787402
-7.19225872,1.43024100,0.16916830,2.50676700,0.00787402
-7.11225871,1.96850400,0.23068400,1.98388300,0.00790477
-7.03225871,2.52214600,0.30757870,1.43024100,0.00790477
-6.95225871,3.01427100,0.33833660,0.92273620,0.00790477
-6.87225871,3.42950300,0.33833660,0.49212600,0.00787402
-6.79225871,3.73708200,0.26144190,0.18454720,0.00784326
-6.71225871,3.89087100,0.10765260,0.01537894,0.00784326
-6.63225871,3.90625000,-0.12303150,0.01537894,0.00784326
-6.55225871,3.78321800,-0.44598910,0.18454720,0.00784326
-6.47225871,3.53715500,-0.83046260,0.49212600,0.00787402
-6.39225870,3.18344000,-1.26107300,0.92273620,0.00790477
-6.31225870,2.75283000,-1.73782000,1.43024100,0.00790477
-6.23225870,2.27608300,-2.21456700,1.98388300,0.00790477
-6.15225870,1.78395700,-2.67593500,2.50676700,0.00790477
-6.07225870,1.26107300,-3.10654500,3.01427100,0.00787402
-5.99225870,0.75356790,-3.47564000,3.44488200,0.00784326
-5.91225870,0.24606300,-3.78321800,3.78321800,0.00784326
-5.83225870,-0.24606300,-4.04466000,4.02928100,0.00784326
-5.75225870,-0.75356790,-4.22920700,4.19845000,0.00784326
-5.67225869,-1.26107300,-4.36761800,4.27534400,0.00787402
-5.59225869,-1.78395700,-4.44451300,4.29072300,0.00790477
-5.51225869,-2.27608300,-4.49065000,4.25996500,0.00790477
-5.43225869,-2.75283000,-4.49065000,4.18307100,0.00790477
-5.35225869,-3.18344000,-4.45989200,4.10617600,0.00790477
-5.27225869,-3.53715500,-4.38299700,4.02928100,0.00787402
-5.19225869,-3.78321800,-4.24458600,3.96776600,0.00784326
-5.11225869,-3.90625000,-4.06003900,3.93700800,0.00784326
-5.03225869,-3.90625000,-3.76783900,3.92162900,0.00784326
-4.95225869,-3.78321800,-3.38336600,3.92162900,0.00784326
-4.87225868,-3.53715500,-2.90661900,3.93700800,0.00787402
-4.79225868,-3.18344000,-2.35297700,3.93700800,0.00790477
-4.71225868,-2.75283000,-1.73782000,3.95238700,0.00790477
-4.63225868,-2.27608300,-1.12266200,3.95238700,0.00790477
-4.55225868,-1.78395700,-0.58439960,3.95238700,0.00787402
-4.47225868,-1.26107300,-0.15378940,3.93700800,0.00787402
-4.39225868,-0.75356790,0.09227362,3.92162900,0.00784326
-4.31225868,-0.24606300,0.09227362,3.92162900,0.00784326
-4.23225868,0.24606300,-0.15378940,3.92162900,0.00787402
-4.15225867,0.75356790,-0.67667320,3.92162900,0.00793553
-4.07225867,1.26107300,-1.41486200,3.93700800,0.00805856
-3.99225867,1.78395700,-2.35297700,3.95238700,0.00821235
-3.91225867,2.27608300,-3.41412400,3.95238700,0.00836614
-3.83225867,2.75283000,-4.49065000,3.95238700,0.00851993
-3.75225867,3.18344000,-5.53641700,3.95238700,0.00858145
-3.67225867,3.53715500,-6.44377400,3.93700800,0.00855069
-3.59225867,3.78321800,-7.18196300,3.92162900,0.00839690
-3.51225867,3.90625000,-7.67408900,3.92162900,0.00805856
-3.43225866,3.89087100,-7.95091000,3.92162900,0.00756644
-3.35225866,3.73708200,-7.98166800,3.92162900,0.00688976
-3.27225866,3.42950300,-7.81250000,3.93700800,0.00602854
-3.19225866,3.01427100,-7.47416300,3.95238700,0.00501353
-3.11225866,2.52214600,-7.01279500,3.95238700,0.00396777
-3.03225866,1.96850400,-6.47453200,3.95238700,0.00286048
-2.95225866,1.43024100,-5.89013200,3.95238700,0.00184547
-2.87225866,0.92273620,-5.29035400,3.93700800,0.00098425
-2.79225866,0.49212600,-4.72133400,3.92162900,0.00036909
-2.71225866,0.13841040,-4.18307100,3.92162900,0.00003076
-2.63225865,-0.10765260,-3.67556500,3.92162900,0.00003076
-2.55225865,-0.27682080,-3.19881900,3.92162900,0.00036909
-2.47225865,-0.33833660,-2.75283000,3.93700800,0.00098425
-2.39225865,-0.35371550,-2.32221900,3.95238700,0.00184547
-2.31225865,-0.30757870,-1.90698800,3.95238700,0.00286048
-2.23225865,-0.23068400,-1.50713600,3.95238700,0.00396777
-2.15225865,-0.16916830,-1.10728300,3.95238700,0.00501353
-2.07225865,-0.09227362,-0.73818890,3.93700800,0.00602854
-1.99225865,-0.04613681,-0.39985230,3.92162900,0.00688976
-1.91225864,-0.01537894,-0.12303150,3.92162900,0.00756644
-1.83225864,0.00000000,0.10765260,3.92162900,0.00805856
-1.75225864,0.01537894,0.24606300,3.92162900,0.00839690
-1.67225864,0.00000000,0.32295760,3.93700800,0.00855069
-1.59225864,0.00000000,0.33833660,3.95238700,0.00858145
-1.51225864,0.00000000,0.30757870,3.95238700,0.00851993
-1.43225864,0.00000000,0.23068400,3.95238700,0.00836614
-1.35225864,0.00000000,0.16916830,3.99852300,0.00821235
-1.27225864,0.00000000,0.09227362,4.13693400,0.00805856
-1.19225863,0.01537894,0.04613681,4.22920700,0.00793553
-1.11225863,0.00000000,0.01537894,4.10617600,0.00787402
-1.03225863,-0.01537894,0.00000000,3.61405000,0.00784326
-0.95225863,-0.04613681,-0.01537894,2.58366100,0.00784326
-0.87225863,-0.09227362,0.00000000,0.99963080,0.00787402
-0.79225863,-0.16916830,0.00000000,-1.09190400,0.00787402
-0.71225863,-0.23068400,0.00000000,-3.38336600,0.00790477
-0.63225863,-0.30757870,0.00000000,-5.47490100,0.00790477
-0.55225863,-0.35371550,0.00000000,-6.64370100,0.00790477
-0.47225863,-0.35371550,0.00000000,-6.16695300,0.00787402
-0.39225862,-0.27682080,0.00000000,-3.70632400,0.00784326
-0.31225862,-0.12303150,0.00000000,0.86122040,0.00784326
-0.23225862,0.15378940,0.00000000,7.45878400,0.00784326
-0.15225862,0.53826270,0.00000000,15.76341000,0.00784326
-0.07225862,1.01501000,0.00000000,25.40600000,0.00787402
0.00774138,1.59940900,0.00000000,35.97133000,0.00790477
0.08774138,2.21456700,0.00000000,47.16720000,0.00790477
0.16774138,2.82972400,0.00000000,58.90133000,0.00790477
0.24774138,3.32185000,0.00000000,71.32750000,0.00790477
0.32774139,3.66018700,0.00000000,84.78408000,0.00787402
0.40774139,3.81397600,-0.01537894,99.67088000,0.00784326
0.48774139,3.89087100,0.00000000,116.38780000,0.00784326
0.56774139,3.96776600,0.01537894,135.19620000,0.00784326
0.64774139,4.12155500,0.04613681,156.14230000,0.00784326
0.72774139,4.41375400,0.09227362,178.94930000,0.00787402
0.80774139,4.84436500,0.16916830,202.95580000,0.00790477
0.88774139,5.27497500,0.23068400,227.13150000,0.00790477
0.96774139,5.53641700,0.30757870,250.18450000,0.00790477
1.04774139,5.18270100,0.33833660,270.63850000,0.00787402
1.12774140,3.79859700,0.33833660,286.98630000,0.00784326
1.20774140,1.35334600,0.26144190,297.89000000,0.00781250
1.28774140,-1.99926200,0.10765260,302.38060000,0.00781250
1.36774140,-5.96702700,-0.12303150,299.88930000,0.00787402
1.44774140,-10.22699000,-0.44598910,290.43120000,0.00802781
1.52774140,-14.50234000,-0.83046260,274.51400000,0.00824311
1.60774140,-18.67003000,-1.26107300,253.18340000,0.00855069
1.68774140,-22.89923000,-1.73782000,227.86970000,0.00885827
1.76774140,-27.63595000,-2.21456700,200.18760000,0.00913509
1.84774141,-33.86442000,-2.73745100,171.79810000,0.00916585
1.92774141,-42.61503000,-3.29109200,144.25440000,0.00888903
2.00774141,-54.44143000,-3.75246000,118.78690000,0.00842766
2.08774141,-69.62044000,-3.96776600,96.28752000,0.00796629
2.16774141,-88.04441000,-3.75246000,77.17150000,0.00784326
2.24774141,-109.28270000,-2.98351400,61.46961000,0.00824311
2.32774141,-132.67410000,-1.61478800,48.85888000,0.00928888
2.40774141,-157.44960000,0.26144190,38.75492000,0.01091905
2.48774141,-182.87090000,2.36835600,30.48105000,0.01279528
2.56774142,-208.35380000,4.33686000,23.29909000,0.01427165
2.64774142,-233.80600000,5.41338600,16.65539000,0.01421014
2.72774142,-259.27350000,4.95201700,10.28851000,0.01159572
2.80774142,-284.55650000,2.72207200,4.21382900,0.00599779
2.88774142,-309.42420000,-1.30720900,-1.39948300,-0.00255290
2.96774142,-333.63060000,-6.88976300,-6.21309000,-0.01371801
3.04774142,-356.85280000,-13.64112000,-9.96555000,-0.02688238
3.12774142,-378.73710000,-21.19217000,-12.41080000,-0.04143086
3.20774142,-398.96040000,-29.23536000,-13.51808000,-0.05677903
3.28774142,-417.27670000,-37.69378000,-13.39505000,-0.07280388
3.36774143,-433.50150000,-46.78272000,-12.51845000,-0.08975147
3.44774143,-447.74230000,-57.25578000,-11.38041000,-0.10866760
3.52774143,-460.12240000,-69.94341000,-10.22699000,-0.13075170
3.60774143,-470.61080000,-85.30696000,-9.16584600,-0.15677290
3.68774143,-479.05390000,-103.56180000,-8.25848900,-0.18713090
3.76774143,-485.28230000,-124.61550000,-7.44340500,-0.22182580
3.84774143,-489.12710000,-148.08380000,-6.64370100,-0.26036540
3.92774143,-490.43430000,-173.38210000,-5.76710100,-0.30185780
4.00774143,-489.12710000,-199.77240000,-4.70595500,-0.34507260
4.08774144,-485.23620000,-226.47020000,-3.47564000,-0.38868730
4.16774144,-478.90010000,-252.82970000,-2.10691400,-0.43131770
4.24774144,-470.50320000,-278.58940000,-0.72281000,-0.47201030
4.32774144,-460.53760000,-303.58020000,0.66129420,-0.50999630
4.40774144,-449.43400000,-327.50980000,2.01464100,-0.54447590
4.48774144,-437.57690000,-350.13220000,3.30647100,-0.57483390
4.56774144,-425.24300000,-371.17060000,4.52140800,-0.60070130
4.64774144,-412.55530000,-390.40970000,5.69020700,-0.62189350
4.72774144,-399.51400000,-407.63410000,6.79749000,-0.63834890
4.80774145,-385.96510000,-422.64390000,7.84325700,-0.65016000
4.88774145,-371.77040000,-435.30080000,8.81213000,-0.65754180
4.96774145,-356.56060000,-445.52780000,9.70410800,-0.66067910
5.04774145,-340.18210000,-453.40180000,10.47305000,-0.65987940
5.12774145,-322.88080000,-459.03050000,11.10359000,-0.65529650
5.20774145,-305.05660000,-462.35230000,11.54958000,-0.64705340
5.28774145,-287.23240000,-463.30580000,11.76489000,-0.63502710
5.36774145,-269.91570000,-461.75260000,11.70337000,-0.61918680
5.44774145,-253.49100000,-457.61560000,11.38041000,-0.59950170
5.52774145,-238.14280000,-450.86430000,10.79601000,-0.57603350
5.60774146,-223.84040000,-441.56000000,9.98092900,-0.54908960
5.68774146,-210.35310000,-429.85660000,8.99667800,-0.51910070
5.76774146,-197.05030000,-416.04640000,7.90477300,-0.48668180
5.84774146,-183.34770000,-400.52900000,6.81286900,-0.45269440
5.92774146,-169.18370000,-383.93510000,5.79785900,-0.41824560
6.00774146,-154.74290000,-366.81840000,4.90588000,-0.38447340
6.08774146,-140.37890000,-349.68620000,4.19845000,-0.35245450
6.16774146,-126.52250000,-332.92320000,3.69094500,-0.32289620
6.24774146,-113.57340000,-316.71380000,3.33722900,-0.29619830
6.32774147,-101.77780000,-301.05810000,3.15268200,-0.27236100
6.40774147,-91.22784000,-285.83290000,3.09116600,-0.25107650
6.48774147,-81.80056000,-270.80770000,3.10654500,-0.23172980
6.56774147,-72.98843000,-255.53640000,3.16806100,-0.21330590
6.64774147,-64.33009000,-239.74220000,3.27571300,-0.19497420
6.72774147,-55.70251000,-223.59440000,3.41412400,-0.17664250
6.80774147,-47.24409000,-207.46190000,3.58329200,-0.15861840
6.88774147,-39.13939000,-191.83690000,3.79859700,-0.14142470
6.96774147,-31.66523000,-177.16530000,4.06003900,-0.12573820
7.04774148,-25.06767000,-163.86260000,4.39837600,-0.11208170
7.12774148,-19.51587000,-152.08230000,4.78284900,-0.10082430
7.20774148,-15.07136000,-141.79380000,5.21345900,-0.09199680
7.28774148,-11.61110000,-132.73560000,5.69020700,-0.08523007
7.36774148,-8.81213000,-124.27720000,6.16695300,-0.07960138
7.44774148,-6.33612200,-115.80340000,6.61294300,-0.07421875
7.52774148,-4.10617600,-107.20660000,7.04355200,-0.06877460
7.60774148,-2.16843000,-98.60974000,7.39726800,-0.06320743
7.68774148,-0.59977850,-90.25897000,7.70484700,-0.05760950
7.76774148,0.46136810,-82.50800000,7.96628900,-0.05231914
7.84774149,0.89197830,-75.66437000,8.16621500,-0.04761319
7.92774149,0.64591530,-69.91264000,8.30462600,-0.04373770
8.00774149,-0.26144190,-65.28358000,8.39689900,-0.04084646
8.08774149,-1.76857800,-61.63877000,8.44303500,-0.03881644
8.16774149,-3.59867100,-58.50147000,8.44303500,-0.03730930
8.24774149,-5.53641700,-55.34879000,8.39689900,-0.03592520
8.32774149,-7.47416300,-52.02694000,8.30462600,-0.03457185
8.40774149,-9.30425600,-48.50517000,8.16621500,-0.03321850
8.48774149,-10.98056000,-44.90649000,7.96628900,-0.03195743
8.56774150,-12.51845000,-41.43085000,7.70484700,-0.03085015
8.64774150,-13.90256000,-38.26279000,7.39726800,-0.03005044
8.72774150,-15.17901000,-35.55610000,7.04355200,-0.02961983
8.80774150,-16.36319000,-33.34153000,6.61294300,-0.02952756
8.88774150,-17.51661000,-31.58834000,6.16695300,-0.02980438
8.96774150,-18.60851000,-30.01968000,5.69020700,-0.03020423
9.04774150,-19.66966000,-28.29724000,5.21345900,-0.03057333
9.12774150,-20.73080000,-26.28260000,4.76747000,-0.03088091
9.20774150,-21.83809000,-23.88349000,4.36761800,-0.03112697
9.28774151,-22.96075000,-21.11528000,4.04466000,-0.03131152
9.36774151,-24.11417000,-18.05487000,3.81397600,-0.03146530
9.44774151,-25.25221000,-14.79454000,3.66018700,-0.03164985
9.52774151,-26.35950000,-11.47269000,3.59867100,-0.03189592
9.60774151,-27.40526000,-8.18159400,3.59867100,-0.03223425
9.68774151,-28.34338000,-4.98277500,3.64480800,-0.03257259
9.76774151,-29.15846000,-1.84547200,3.72170300,-0.03284941
9.84774151,-29.85052000,1.27645200,3.78321800,-0.03294168
9.92774151,-30.40416000,4.36761800,3.84473400,-0.03281865
10.00774151,-30.85015000,7.39726800,3.89087100,-0.03241880
10.08774152,-31.21924000,10.33464000,3.90625000,-0.03180364
10.16774152,-31.52682000,13.14899000,3.92162900,-0.03091166
10.24774152,-31.77288000,15.80955000,3.93700800,-0.02980438
10.32774152,-31.97281000,18.25480000,3.93700800,-0.02854331
10.40774152,-32.11122000,20.46936000,3.95238700,-0.02712844
10.48774152,-32.14198000,22.42249000,3.95238700,-0.02562131
10.56774152,-32.00356000,24.12955000,3.95238700,-0.02399114
10.64774152,-31.61909000,25.54441000,3.93700800,-0.02220719
10.72774152,-30.89628000,26.63632000,3.93700800,-0.02036171
10.80774153,-29.80438000,27.31299000,3.92162900,-0.01848548
10.88774153,-28.32800000,27.52830000,3.92162900,-0.01660925
10.96774153,-26.49791000,27.26685000,3.93700800,-0.01479454
11.04774153,-24.31410000,26.49791000,3.96776600,-0.01316437
11.12774153,-21.86885000,25.26759000,4.02928100,-0.01165723
11.20774153,-19.20829000,23.60667000,4.10617600,-0.01030389
11.28774153,-16.37857000,21.60740000,4.18307100,-0.00907357
11.36774153,-13.45657000,19.36208000,4.25996500,-0.00784326
11.44774153,-10.44230000,16.94759000,4.29072300,-0.00648991
11.52774153,-7.38188900,14.39468000,4.27534400,-0.00495202
11.60774154,-4.35223900,11.78026000,4.19845000,-0.00316806
