Time,Channel A,Channel B,Channel C,Channel D
(ns),(mV),(mV),(mV),(V)

-15.46666683,-3.76783900,0.12303150,3.93700800,0.00812008
-15.38666682,-3.26033400,0.43061020,3.96776600,0.00879675
-15.30666682,-2.52214600,0.83046260,4.02928100,0.00971949
-15.22666682,-1.58403000,1.26107300,4.10617600,0.01073450
-15.14666682,-0.53826270,1.73782000,4.18307100,0.01184178
-15.06666682,0.53826270,2.21456700,4.25996500,0.01294907
-14.98666682,1.58403000,2.67593500,4.29072300,0.01393332
-14.90666682,2.52214600,3.10654500,4.27534400,0.01476378
-14.82666682,3.26033400,3.47564000,4.19845000,0.01534818
-14.74666682,3.76783900,3.78321800,4.02928100,0.01565576
-14.66666681,4.01390200,4.04466000,3.78321800,0.01565576
-14.58666681,4.01390200,4.22920700,3.44488200,0.01534818
-14.50666681,3.78321800,4.36761800,3.01427100,0.01476378
-14.42666681,3.36798700,4.44451300,2.50676700,0.01393332
-14.34666681,2.82972400,4.49065000,1.98388300,0.01294907
-14.26666681,2.21456700,4.49065000,1.43024100,0.01184178
-14.18666681,1.59940900,4.44451300,0.92273620,0.01076526
-14.10666681,1.01501000,4.36761800,0.49212600,0.00971949
-14.02666681,0.53826270,4.22920700,0.18454720,0.00882751
-13.94666680,0.15378940,4.02928100,0.01537894,0.00812008
-13.86666680,-0.12303150,3.79859700,0.01537894,0.00762795
-13.78666680,-0.27682080,3.52177600,0.18454720,0.00732037
-13.70666680,-0.35371550,3.19881900,0.49212600,0.00719734
-13.62666680,-0.35371550,2.82972400,0.92273620,0.00719734
-13.54666680,-0.30757870,2.44525100,1.43024100,0.00728962
-13.46666680,-0.23068400,2.04539800,1.98388300,0.00744341
-13.38666680,-0.16916830,1.61478800,2.50676700,0.00756644
-13.30666680,-0.09227362,1.16879900,3.01427100,0.00768947
-13.22666680,-0.04613681,0.70743110,3.44488200,0.00778174
-13.14666679,-0.01537894,0.23068400,3.78321800,0.00781250
-13.06666679,0.00000000,-0.23068400,4.02928100,0.00784326
-12.98666679,0.01537894,-0.70743110,4.19845000,0.00787402
-12.90666679,0.00000000,-1.16879900,4.27534400,0.00787402
-12.82666679,0.00000000,-1.61478800,4.29072300,0.00790477
-12.74666679,0.00000000,-2.04539800,4.25996500,0.00790477
-12.66666679,0.00000000,-2.44525100,4.18307100,0.00790477
-12.58666679,0.00000000,-2.84510300,4.10617600,0.00790477
-12.50666679,0.00000000,-3.19881900,4.02928100,0.00787402
-12.42666678,0.00000000,-3.52177600,3.96776600,0.00784326
-12.34666678,0.00000000,-3.79859700,3.93700800,0.00784326
-12.26666678,0.00000000,-4.02928100,3.92162900,0.00784326
-12.18666678,0.00000000,-4.18307100,3.92162900,0.00784326
-12.10666678,0.00000000,-4.25996500,3.93700800,0.00787402
-12.02666678,0.00000000,-4.29072300,3.93700800,0.00790477
-11.94666678,0.00000000,-4.25996500,3.95238700,0.00790477
-11.86666678,0.00000000,-4.18307100,3.95238700,0.00790477
-11.78666678,0.00000000,-4.10617600,3.95238700,0.00790477
-11.70666677,0.00000000,-4.02928100,3.93700800,0.00787402
-11.62666677,0.00000000,-3.96776600,3.92162900,0.00784326
-11.54666677,0.00000000,-3.92162900,3.92162900,0.00784326
-11.46666677,0.00000000,-3.92162900,3.92162900,0.00784326
-11.38666677,0.00000000,-3.96776600,3.92162900,0.00784326
-11.30666677,0.00000000,-4.02928100,3.93700800,0.00787402
-11.22666677,0.00000000,-4.10617600,3.95238700,0.00790477
-11.14666677,0.00000000,-4.18307100,3.95238700,0.00790477
-11.06666677,0.00000000,-4.25996500,3.95238700,0.00790477
-10.98666677,0.00000000,-4.29072300,3.95238700,0.00790477
-10.90666676,0.00000000,-4.27534400,3.93700800,0.00787402
-10.82666676,0.01537894,-4.18307100,3.92162900,0.00784326
-10.74666676,0.00000000,-4.02928100,3.92162900,0.00784326
-10.66666676,-0.01537894,-3.79859700,3.92162900,0.00784326
-10.58666676,-0.04613681,-3.49101900,3.92162900,0.00784326
-10.50666676,-0.09227362,-3.10654500,3.93700800,0.00787402
-10.42666676,-0.16916830,-2.67593500,3.95238700,0.00790477
-10.34666676,-0.23068400,-2.21456700,3.95238700,0.00790477
-10.26666676,-0.30757870,-1.73782000,3.95238700,0.00790477
-10.18666675,-0.35371550,-1.26107300,3.95238700,0.00790477
-10.10666675,-0.35371550,-0.83046260,3.93700800,0.00787402
-10.02666675,-0.27682080,-0.44598910,3.93700800,0.00784326
-9.94666675,-0.12303150,-0.12303150,3.92162900,0.00784326
-9.86666675,0.15378940,0.10765260,3.90625000,0.00784326
-9.78666675,0.53826270,0.26144190,3.89087100,0.00784326
-9.70666675,1.01501000,0.33833660,3.84473400,0.00787402
-9.62666675,1.59940900,0.33833660,3.78321800,0.00790477
-9.54666675,2.21456700,0.30757870,3.72170300,0.00790477
-9.46666674,2.82972400,0.23068400,3.64480800,0.00790477
-9.38666674,3.36798700,0.15378940,3.59867100,0.00790477
-9.30666674,3.78321800,0.09227362,3.59867100,0.00787402
-9.22666674,3.99852300,0.03075787,3.66018700,0.00784326
-9.14666674,4.01390200,0.00000000,3.81397600,0.00784326
-9.06666674,3.76783900,0.00000000,4.06003900,0.00784326
-8.98666674,3.30647100,0.03075787,4.41375400,0.00784326
-8.90666674,2.61441900,0.09227362,4.85974400,0.00787402
-8.82666674,1.75319900,0.15378940,5.38262700,0.00790477
-8.74666674,0.78432570,0.23068400,5.92089000,0.00790477
-8.66666673,-0.24606300,0.30757870,6.47453200,0.00790477
-8.58666673,-1.24569400,0.35371550,6.96665800,0.00787402
-8.50666673,-2.16843000,0.33833660,7.36651000,0.00787402
-8.42666673,-2.98351400,0.27682080,7.65871000,0.00784326
-8.34666673,-3.64480800,0.10765260,7.81250000,0.00784326
-8.26666673,-4.15231300,-0.13841040,7.82787800,0.00787402
-8.18666673,-4.50602900,-0.49212600,7.72022600,0.00793553
-8.10666673,-4.70595500,-0.92273620,7.47416300,0.00805856
-8.02666673,-4.79822800,-1.43024100,7.13582600,0.00821235
-7.94666672,-4.79822800,-1.96850400,6.70521600,0.00836614
-7.86666672,-4.73671200,-2.52214600,6.22846900,0.00851993
-7.78666672,-4.61368100,-3.01427100,5.72096400,0.00858145
-7.70666672,-4.45989200,-3.44488200,5.19808000,0.00855069
-7.62666672,-4.27534400,-3.73708200,4.69057600,0.00839690
-7.54666672,-4.04466000,-3.90625000,4.16769200,0.00805856
-7.46666672,-3.78321800,-3.90625000,3.67556500,0.00756644
-7.38666672,-3.46026100,-3.73708200,3.16806100,0.00688976
-7.30666672,-3.09116600,-3.44488200,2.67593500,0.00602854
-7.22666672,-2.67593500,-3.01427100,2.16843000,0.00501353
-7.14666671,-2.21456700,-2.52214600,1.67630400,0.00396777
-7.06666671,-1.73782000,-1.96850400,1.19955700,0.00286048
-6.98666671,-1.27645200,-1.43024100,0.76894680,0.00184547
-6.90666671,-0.83046260,-0.93811510,0.39985230,0.00098425
-6.82666671,-0.46136810,-0.49212600,0.13841040,0.00036909
-6.74666671,-0.13841040,-0.13841040,0.01537894,0.00003076
-6.66666671,0.12303150,0.12303150,0.03075787,0.00003076
-6.58666671,0.30757870,0.30757870,0.19992620,0.00036909
-6.50666671,0.43061020,0.43061020,0.50750490,0.00098425
-6.42666670,0.50750490,0.50750490,0.92273620,0.00184547
-6.34666670,0.53826270,0.53826270,1.43024100,0.00286048
-6.26666670,0.53826270,0.53826270,1.98388300,0.00396777
-6.18666670,0.50750490,0.50750490,2.50676700,0.00501353
-6.10666670,0.43061020,0.43061020,3.01427100,0.00602854
-6.02666670,0.30757870,0.30757870,3.44488200,0.00688976
-5.94666670,0.12303150,0.12303150,3.78321800,0.00756644
-5.86666670,-0.13841040,-0.13841040,4.02928100,0.00805856
-5.78666670,-0.49212600,-0.46136810,4.19845000,0.00839690
-5.70666669,-0.93811510,-0.83046260,4.27534400,0.00855069
-5.62666669,-1.43024100,-1.27645200,4.29072300,0.00858145
-5.54666669,-1.96850400,-1.73782000,4.25996500,0.00851993
-5.46666669,-2.52214600,-2.21456700,4.18307100,0.00836614
-5.38666669,-3.01427100,-2.67593500,4.10617600,0.00821235
-5.30666669,-3.44488200,-3.10654500,4.02928100,0.00805856
-5.22666669,-3.73708200,-3.49101900,3.96776600,0.00793553
-5.14666669,-3.90625000,-3.79859700,3.92162900,0.00784326
-5.06666669,-3.90625000,-4.01390200,3.92162900,0.00784326
-4.98666669,-3.73708200,-4.15231300,3.96776600,0.00793553
-4.90666668,-3.44488200,-4.18307100,4.02928100,0.00805856
-4.82666668,-3.01427100,-4.12155500,4.10617600,0.00821235
-4.74666668,-2.52214600,-4.01390200,4.18307100,0.00836614
-4.66666668,-1.96850400,-3.89087100,4.25996500,0.00851993
-4.58666668,-1.43024100,-3.76783900,4.29072300,0.00858145
-4.50666668,-0.92273620,-3.69094500,4.27534400,0.00855069
-4.42666668,-0.49212600,-3.70632400,4.18307100,0.00836614
-4.34666668,-0.13841040,-3.81397600,4.02928100,0.00805856
-4.26666668,0.10765260,-4.06003900,3.79859700,0.00759720
-4.18666667,0.27682080,-4.39837600,3.49101900,0.00698204
-4.10666667,0.33833660,-4.85974400,3.10654500,0.00621309
-4.02666667,0.35371550,-5.36724900,2.67593500,0.00535187
-3.94666667,0.30757870,-5.92089000,2.21456700,0.00442913
-3.86666667,0.23068400,-6.47453200,1.73782000,0.00347564
-3.78666667,0.15378940,-6.96665800,1.27645200,0.00252215
-3.70666667,0.09227362,-7.36651000,0.83046260,0.00166093
-3.62666667,0.03075787,-7.65871000,0.46136810,0.00089198
-3.54666667,0.00000000,-7.81250000,0.13841040,0.00024606
-3.46666666,0.00000000,-7.82787800,-0.12303150,-0.00021531
-3.38666666,0.03075787,-7.72022600,-0.30757870,-0.00052288
-3.30666666,0.09227362,-7.47416300,-0.43061020,-0.00067667
-3.22666666,0.15378940,-7.13582600,-0.50750490,-0.00067667
-3.14666666,0.23068400,-6.70521600,-0.53826270,-0.00061516
-3.06666666,0.30757870,-6.22846900,-0.53826270,-0.00046137
-2.98666666,0.35371550,-5.72096400,-0.50750490,-0.00030758
-2.90666666,0.33833660,-5.19808000,-0.43061020,-0.00018455
-2.82666666,0.27682080,-4.69057600,-0.29219980,-0.00006152
-2.74666666,0.10765260,-4.16769200,-0.10765260,0.00000000
-2.66666665,-0.13841040,-3.67556500,0.12303150,0.00000000
-2.58666665,-0.49212600,-3.16806100,0.41523130,-0.00006152
-2.50666665,-0.92273620,-2.67593500,0.73818890,-0.00018455
-2.42666665,-1.43024100,-2.16843000,1.10728300,-0.00030758
-2.34666665,-1.96850400,-1.67630400,1.50713600,-0.00046137
-2.26666665,-2.52214600,-1.19955700,1.90698800,-0.00061516
-2.18666665,-3.01427100,-0.76894680,2.33759800,-0.00067667
-2.10666665,-3.44488200,-0.39985230,2.76820900,-0.00064592
-2.02666665,-3.73708200,-0.13841040,3.22957700,-0.00049213
-1.94666664,-3.90625000,-0.01537894,3.69094500,-0.00021531
-1.86666664,-3.90625000,-0.03075787,4.15231300,0.00024606
-1.78666664,-3.73708200,-0.19992620,4.62906000,0.00079970
-1.70666664,-3.44488200,-0.50750490,5.10580700,0.00147638
-1.62666664,-3.01427100,-0.92273620,5.55179600,0.00221457
-1.54666664,-2.52214600,-1.43024100,5.99778500,0.00301427
-1.46666664,-1.96850400,-1.98388300,6.39763700,0.00381398
-1.38666664,-1.43024100,-2.50676700,6.82824800,0.00467520
-1.30666664,-0.93811510,-2.99889300,7.28961600,0.00553642
-1.22666663,-0.49212600,-3.42950300,7.68946800,0.00642840
-1.14666663,-0.13841040,-3.78321800,7.87401500,0.00735113
-1.06666663,0.12303150,-4.04466000,7.70484700,0.00833538
-0.98666663,0.30757870,-4.24458600,7.07431000,0.00935039
-0.90666663,0.43061020,-4.36761800,5.92089000,0.01039616
-0.82666663,0.50750490,-4.45989200,4.33686000,0.01144193
-0.74666663,0.53826270,-4.49065000,2.52214600,0.01245694
-0.66666663,0.53826270,-4.49065000,0.84584150,0.01341043
-0.58666663,0.50750490,-4.45989200,-0.09227362,0.01427165
-0.50666663,0.43061020,-4.36761800,0.27682080,0.01494833
-0.42666662,0.30757870,-4.24458600,2.19918800,0.01544045
-0.34666662,0.12303150,-4.04466000,5.62869100,0.01565576
-0.26666662,-0.13841040,-3.78321800,10.35002000,0.01562500
-0.18666662,-0.46136810,-3.42950300,16.05561000,0.01531742
-0.10666662,-0.83046260,-2.99889300,22.37635000,0.01473302
-0.02666662,-1.27645200,-2.50676700,29.08157000,0.01393332
0.05333338,-1.73782000,-1.98388300,36.12512000,0.01294907
0.13333338,-2.21456700,-1.43024100,43.70694000,0.01184178
0.21333338,-2.70669300,-0.92273620,52.39603000,0.01073450
0.29333339,-3.21419800,-0.50750490,62.93060000,0.00971949
0.37333339,-3.64480800,-0.19992620,76.04884000,0.00879675
0.45333339,-3.89087100,-0.03075787,92.42741000,0.00812008
0.53333339,-3.87549200,-0.01537894,112.48150000,0.00762795
0.61333339,-3.49101900,-0.13841040,136.21120000,0.00741265
0.69333339,-2.75283000,-0.39985230,163.23200000,0.00738189
0.77333339,-1.69168300,-0.76894680,192.57500000,0.00753568
0.85333339,-0.46136810,-1.19955700,222.85620000,0.00778174
0.93333339,0.67667320,-1.67630400,252.30680000,0.00802781
1.01333339,1.29183100,-2.16843000,278.97390000,0.00824311
1.09333340,0.95349410,-2.67593500,300.95040000,0.00836614
1.17333340,-0.38447340,-3.18344000,316.57540000,0.00830463
1.25333340,-2.58366100,-3.67556500,324.60320000,0.00802781
1.33333340,-5.36724900,-4.16769200,324.41860000,0.00759720
1.41333340,-8.44303500,-4.64443900,316.02180000,0.00698204
1.49333340,-11.51882000,-5.10580700,300.08920000,0.00621309
1.57333340,-14.50234000,-5.56717500,277.85120000,0.00535187
1.65333340,-17.54737000,-5.99778500,250.96890000,0.00442913
1.73333340,-21.13066000,-6.39763700,221.31830000,0.00347564
1.81333341,-26.20571000,-6.82824800,190.76030000,0.00246063
1.89333341,-33.80290000,-7.27423700,161.01750000,0.00141486
1.97333341,-44.47588000,-7.67408900,133.45840000,0.00049213
2.05333341,-58.45534000,-7.85863600,108.97510000,0.00000000
2.13333341,-75.66437000,-7.73560500,88.04441000,0.00018455
2.21333341,-95.67236000,-7.15120500,70.63545000,0.00119956
2.29333341,-117.83340000,-6.10543700,56.36380000,0.00313730
2.37333341,-141.39390000,-4.65981800,44.62967000,0.00581324
2.45333341,-165.67730000,-2.99889300,34.71026000,0.00885827
2.53333342,-190.14520000,-1.44562000,25.89813000,0.01168799
2.61333342,-214.76680000,-0.59977850,17.63964000,0.01325664
2.69333342,-239.65000000,-0.99963080,9.73486600,0.01261073
2.77333342,-264.67150000,-2.76820900,2.21456700,0.00938115
2.85333342,-289.63150000,-5.87475300,-4.70595500,0.00369095
2.93333342,-314.29930000,-10.04245000,-10.70374000,-0.00415231
3.01333342,-338.32120000,-14.90219000,-15.44045000,-0.01353346
3.09333342,-361.34350000,-20.14641000,-18.68541000,-0.02389887
3.17333342,-382.98160000,-25.57517000,-20.42323000,-0.03481791
3.25333342,-402.91280000,-31.21924000,-20.77694000,-0.04632136
3.33333343,-420.90610000,-37.44771000,-20.25406000,-0.05874754
3.41333343,-437.02320000,-45.13718000,-19.34670000,-0.07335753
3.49333343,-451.34100000,-55.25652000,-18.33169000,-0.09147391
3.57333343,-463.76720000,-68.35937000,-17.28592000,-0.11395790
3.65333343,-474.16340000,-84.72256000,-16.24016000,-0.14133240
3.73333343,-482.31420000,-104.31530000,-15.10212000,-0.17365900
3.81333343,-488.03520000,-126.75320000,-13.74877000,-0.21041460
3.89333343,-491.17250000,-151.40560000,-12.08784000,-0.25070740
3.97333343,-491.63380000,-177.48830000,-10.07320000,-0.29333790
4.05333344,-489.45000000,-204.17070000,-7.72022600,-0.33679870
4.13333344,-484.75950000,-230.74560000,-5.21345900,-0.37967520
4.21333344,-477.91580000,-256.85900000,-2.72207200,-0.42098300
4.29333344,-469.41130000,-282.34190000,-0.39985230,-0.45983020
4.37333344,-459.61490000,-306.85590000,1.61478800,-0.49541710
4.45333344,-448.88040000,-330.13960000,3.26033400,-0.52706690
4.53333344,-437.40770000,-351.94700000,4.47527100,-0.55441070
4.61333344,-425.30450000,-372.03180000,5.24421700,-0.57726380
4.69333344,-412.54000000,-390.19440000,5.62869100,-0.59556470
4.77333345,-399.00650000,-406.23460000,5.67482800,-0.60946730
4.85333345,-384.61180000,-420.02950000,5.47490100,-0.61912520
4.93333345,-369.06370000,-431.48680000,5.13656500,-0.62472320
5.01333345,-352.31600000,-440.66800000,4.75209100,-0.62650720
5.09333345,-334.72250000,-447.63470000,4.39837600,-0.62469240
5.17333345,-316.72920000,-452.35600000,4.13693400,-0.61924830
5.25333345,-298.93580000,-454.72440000,3.96776600,-0.61008240
5.33333345,-281.81900000,-454.64750000,3.90625000,-0.59707180
5.41333345,-265.76340000,-452.00230000,3.92162900,-0.58015500
5.49333345,-250.93810000,-446.77350000,3.99852300,-0.55942420
5.57333346,-237.26620000,-438.99170000,4.09079700,-0.53509470
5.65333346,-224.42480000,-428.79550000,4.18307100,-0.50762800
5.73333346,-211.72180000,-416.40010000,4.25996500,-0.47766980
5.81333346,-198.54210000,-402.18990000,4.29072300,-0.44605070
5.89333346,-184.76250000,-386.65720000,4.29072300,-0.41381640
5.97333346,-170.52160000,-370.32480000,4.21382900,-0.38207430
6.05333346,-156.15770000,-353.57710000,4.04466000,-0.35174700
6.13333346,-142.07060000,-336.76790000,3.76783900,-0.32348050
6.21333346,-128.69090000,-320.05100000,3.39874500,-0.29770550
6.29333347,-116.29550000,-303.48790000,2.92199800,-0.27432950
6.37333347,-104.97660000,-287.00170000,2.35297700,-0.25313730
6.45333347,-94.67274000,-270.46940000,1.73782000,-0.23357530
6.53333347,-84.92249000,-253.55250000,1.12266200,-0.21472070
6.61333347,-75.26452000,-236.14360000,0.58439960,-0.19595840
6.69333347,-65.66806000,-218.50390000,0.15378940,-0.17722690
6.77333347,-56.28690000,-201.07960000,-0.09227362,-0.15889520
6.85333347,-47.35175000,-184.40880000,-0.09227362,-0.14148620
6.93333347,-39.15477000,-168.96840000,0.15378940,-0.12570740
7.01333348,-31.94205000,-155.14270000,0.67667320,-0.11202020
7.09333348,-25.88275000,-143.08560000,1.41486200,-0.10079360
7.17333348,-20.99225000,-132.70480000,2.35297700,-0.09196604
7.25333348,-17.16289000,-123.69280000,3.41412400,-0.08523007
7.33333348,-14.02559000,-115.35740000,4.49065000,-0.07960138
7.41333348,-11.21124000,-107.08350000,5.53641700,-0.07421875
7.49333348,-8.67371900,-98.73277000,6.45915300,-0.06877460
7.57333348,-6.44377400,-90.38200000,7.19734200,-0.06320743
7.65333348,-4.62906000,-82.29269000,7.68946800,-0.05760950
7.73333348,-3.38336600,-74.78777000,7.93553100,-0.05231914
7.81333349,-2.87586100,-68.19021000,7.90477300,-0.04761319
7.89333349,-3.15268200,-62.69992000,7.62795300,-0.04373770
7.97333349,-4.19845000,-58.34768000,7.15120500,-0.04084646
8.05333349,-5.89013200,-55.01045000,6.53604800,-0.03881644
8.13333349,-7.92015200,-52.19611000,5.85937500,-0.03730930
8.21333349,-10.01169000,-49.44328000,5.19808000,-0.03592520
8.29333349,-11.99557000,-46.58280000,4.61368100,-0.03457185
8.37333349,-13.71801000,-43.61467000,4.18307100,-0.03324926
8.45333349,-15.11749000,-40.64653000,3.95238700,-0.03195743
8.53333350,-16.17864000,-37.87832000,3.93700800,-0.03085015
8.61333350,-16.90145000,-35.47921000,4.13693400,-0.02995817
8.69333350,-17.36282000,-33.60298000,4.50602900,-0.02940453
8.77333350,-17.60888000,-32.28039000,5.02891200,-0.02921998
8.85333350,-17.74729000,-31.41917000,5.62869100,-0.02931225
8.93333350,-17.82419000,-30.72711000,6.22846900,-0.02958908
9.01333350,-17.91646000,-29.86589000,6.79749000,-0.02989665
9.09333350,-18.13177000,-28.65096000,7.28961600,-0.03020423
9.17333350,-18.54700000,-26.95927000,7.62795300,-0.03057333
9.25333351,-19.19291000,-24.79084000,7.81250000,-0.03106545
9.33333351,-20.08489000,-22.17643000,7.82787800,-0.03174213
9.41333351,-21.20755000,-19.23905000,7.67408900,-0.03263411
9.49333351,-22.48400000,-16.07099000,7.38188900,-0.03377214
9.57333351,-23.86811000,-12.81065000,6.96665800,-0.03509473
9.65333351,-25.28297000,-9.53494100,6.47453200,-0.03650960
9.73333351,-26.63632000,-6.27460600,5.92089000,-0.03786294
9.81333351,-27.91277000,-2.99889300,5.38262700,-0.03897022
9.89333351,-29.05081000,0.23068400,4.85974400,-0.03967766
9.97333351,-30.06582000,3.38336600,4.41375400,-0.03992372
10.05333352,-30.97318000,6.39763700,4.06003900,-0.03958539
10.13333352,-31.77288000,9.24274100,3.81397600,-0.03872416
10.21333352,-32.49569000,11.88792000,3.66018700,-0.03730930
10.29333352,-33.15699000,14.33317000,3.59867100,-0.03543307
10.37333352,-33.72601000,16.51698000,3.59867100,-0.03318775
10.45333352,-34.18737000,18.47010000,3.64480800,-0.03063484
10.53333352,-34.46420000,20.17716000,3.72170300,-0.02792815
10.61333352,-34.44881000,21.60740000,3.78321800,-0.02509842
10.69333352,-34.07972000,22.68393000,3.84473400,-0.02223794
10.77333353,-33.32615000,23.37598000,3.89087100,-0.01946973
10.85333353,-32.12659000,23.60667000,3.90625000,-0.01688607
10.93333353,-30.52719000,23.34522000,3.92162900,-0.01454847
11.01333353,-28.54330000,22.60704000,3.93700800,-0.01251845
11.09333353,-26.23647000,21.42286000,3.93700800,-0.01076526
11.17333353,-23.65280000,19.82345000,3.95238700,-0.00928888
11.25333353,-20.86922000,17.90108000,3.95238700,-0.00796629
11.33333353,-17.94722000,15.71727000,3.95238700,-0.00673597
11.41333353,-14.88681000,13.34892000,3.95238700,-0.00547490
11.49333353,-11.74951000,10.79601000,3.93700800,-0.00409080
