Time,Channel A,Channel B,Channel C,Channel D
(ns),(mV),(mV),(mV),(V)

-15.21126783,0.12303150,0.00000000,3.90625000,0.00805856
-15.13126782,0.30757870,0.01537894,3.87549200,0.00839690
-15.05126782,0.43061020,0.00000000,3.82935500,0.00855069
-14.97126782,0.50750490,0.00000000,3.78321800,0.00858145
-14.89126782,0.53826270,0.00000000,3.72170300,0.00851993
-14.81126782,0.53826270,0.00000000,3.64480800,0.00836614
-14.73126782,0.50750490,0.00000000,3.59867100,0.00821235
-14.65126782,0.43061020,0.00000000,3.59867100,0.00805856
-14.57126782,0.30757870,0.00000000,3.66018700,0.00793553
-14.49126782,0.12303150,0.00000000,3.81397600,0.00787402
-14.41126781,-0.13841040,0.00000000,4.06003900,0.00784326
-14.33126781,-0.49212600,0.00000000,4.41375400,0.00784326
-14.25126781,-0.93811510,0.00000000,4.85974400,0.00787402
-14.17126781,-1.43024100,0.00000000,5.38262700,0.00787402
-14.09126781,-1.96850400,0.00000000,5.92089000,0.00790477
-14.01126781,-2.52214600,0.00000000,6.47453200,0.00790477
-13.93126781,-3.01427100,0.00000000,6.96665800,0.00790477
-13.85126781,-3.44488200,0.00000000,7.38188900,0.00787402
-13.77126781,-3.73708200,-0.01537894,7.67408900,0.00784326
-13.69126780,-3.90625000,0.00000000,7.82787800,0.00784326
-13.61126780,-3.90625000,0.01537894,7.82787800,0.00784326
-13.53126780,-3.73708200,0.04613681,7.67408900,0.00784326
-13.45126780,-3.44488200,0.09227362,7.38188900,0.00787402
-13.37126780,-3.01427100,0.16916830,6.96665800,0.00790477
-13.29126780,-2.52214600,0.23068400,6.47453200,0.00790477
-13.21126780,-1.96850400,0.30757870,5.92089000,0.00790477
-13.13126780,-1.43024100,0.35371550,5.38262700,0.00790477
-13.05126780,-0.93811510,0.33833660,4.85974400,0.00787402
-12.97126780,-0.49212600,0.27682080,4.41375400,0.00784326
-12.89126779,-0.13841040,0.10765260,4.06003900,0.00784326
-12.81126779,0.12303150,-0.13841040,3.81397600,0.00784326
-12.73126779,0.30757870,-0.49212600,3.66018700,0.00784326
-12.65126779,0.43061020,-0.92273620,3.59867100,0.00787402
-12.57126779,0.50750490,-1.43024100,3.59867100,0.00790477
-12.49126779,0.53826270,-1.96850400,3.64480800,0.00790477
-12.41126779,0.53826270,-2.52214600,3.72170300,0.00790477
-12.33126779,0.50750490,-3.02965000,3.78321800,0.00790477
-12.25126779,0.43061020,-3.44488200,3.82935500,0.00787402
-12.17126778,0.30757870,-3.75246000,3.87549200,0.00784326
-12.09126778,0.12303150,-3.90625000,3.90625000,0.00784326
-12.01126778,-0.13841040,-3.89087100,3.93700800,0.00784326
-11.93126778,-0.49212600,-3.70632400,3.98314500,0.00784326
-11.85126778,-0.93811510,-3.35260800,4.04466000,0.00787402
-11.77126778,-1.43024100,-2.86048200,4.10617600,0.00790477
-11.69126778,-1.96850400,-2.27608300,4.18307100,0.00790477
-11.61126778,-2.52214600,-1.67630400,4.25996500,0.00790477
-11.53126778,-3.02965000,-1.09190400,4.29072300,0.00790477
-11.45126777,-3.44488200,-0.58439960,4.27534400,0.00787402
-11.37126777,-3.75246000,-0.21530510,4.18307100,0.00784326
-11.29126777,-3.90625000,-0.03075787,4.02928100,0.00784326
-11.21126777,-3.89087100,-0.03075787,3.79859700,0.00784326
-11.13126777,-3.70632400,-0.21530510,3.49101900,0.00784326
-11.05126777,-3.35260800,-0.58439960,3.10654500,0.00787402
-10.97126777,-2.86048200,-1.09190400,2.67593500,0.00790477
-10.89126777,-2.27608300,-1.67630400,2.21456700,0.00790477
-10.81126777,-1.67630400,-2.27608300,1.73782000,0.00790477
-10.73126777,-1.09190400,-2.86048200,1.27645200,0.00787402
-10.65126776,-0.58439960,-3.35260800,0.83046260,0.00787402
-10.57126776,-0.23068400,-3.70632400,0.46136810,0.00784326
-10.49126776,-0.03075787,-3.89087100,0.13841040,0.00784326
-10.41126776,-0.01537894,-3.89087100,-0.12303150,0.00787402
-10.33126776,-0.16916830,-3.70632400,-0.30757870,0.00793553
-10.25126776,-0.49212600,-3.35260800,-0.43061020,0.00805856
-10.17126776,-0.92273620,-2.86048200,-0.50750490,0.00821235
-10.09126776,-1.43024100,-2.27608300,-0.53826270,0.00836614
-10.01126776,-1.98388300,-1.67630400,-0.53826270,0.00851993
-9.93126775,-2.50676700,-1.09190400,-0.50750490,0.00858145
-9.85126775,-2.99889300,-0.58439960,-0.43061020,0.00855069
-9.77126775,-3.42950300,-0.23068400,-0.30757870,0.00839690
-9.69126775,-3.78321800,-0.03075787,-0.12303150,0.00805856
-9.61126775,-4.04466000,-0.01537894,0.13841040,0.00756644
-9.53126775,-4.24458600,-0.16916830,0.46136810,0.00688976
-9.45126775,-4.36761800,-0.49212600,0.83046260,0.00602854
-9.37126775,-4.45989200,-0.92273620,1.27645200,0.00501353
-9.29126775,-4.49065000,-1.43024100,1.73782000,0.00396777
-9.21126774,-4.49065000,-1.98388300,2.21456700,0.00286048
-9.13126774,-4.44451300,-2.50676700,2.67593500,0.00184547
-9.05126774,-4.36761800,-3.01427100,3.10654500,0.00098425
-8.97126774,-4.22920700,-3.44488200,3.47564000,0.00036909
-8.89126774,-4.04466000,-3.78321800,3.78321800,0.00003076
-8.81126774,-3.78321800,-4.02928100,4.04466000,0.00003076
-8.73126774,-3.47564000,-4.19845000,4.22920700,0.00036909
-8.65126774,-3.10654500,-4.27534400,4.36761800,0.00098425
-8.57126774,-2.67593500,-4.29072300,4.44451300,0.00184547
-8.49126774,-2.21456700,-4.25996500,4.49065000,0.00286048
-8.41126773,-1.73782000,-4.18307100,4.49065000,0.00396777
-8.33126773,-1.27645200,-4.10617600,4.45989200,0.00501353
-8.25126773,-0.83046260,-4.02928100,4.36761800,0.00602854
-8.17126773,-0.46136810,-3.96776600,4.24458600,0.00688976
-8.09126773,-0.13841040,-3.92162900,4.04466000,0.00756644
-8.01126773,0.12303150,-3.92162900,3.78321800,0.00805856
-7.93126773,0.30757870,-3.96776600,3.42950300,0.00839690
-7.85126773,0.43061020,-4.02928100,2.99889300,0.00855069
-7.77126773,0.50750490,-4.10617600,2.50676700,0.00858145
-7.69126772,0.53826270,-4.18307100,1.98388300,0.00851993
-7.61126772,0.53826270,-4.25996500,1.43024100,0.00836614
-7.53126772,0.50750490,-4.29072300,0.92273620,0.00821235
-7.45126772,0.43061020,-4.27534400,0.49212600,0.00805856
-7.37126772,0.30757870,-4.18307100,0.18454720,0.00793553
-7.29126772,0.12303150,-4.02928100,0.01537894,0.00787402
-7.21126772,-0.13841040,-3.79859700,0.01537894,0.00784326
-7.13126772,-0.46136810,-3.49101900,0.18454720,0.00784326
-7.05126772,-0.83046260,-3.10654500,0.49212600,0.00787402
-6.97126772,-1.27645200,-2.67593500,0.92273620,0.00787402
-6.89126771,-1.73782000,-2.21456700,1.43024100,0.00790477
-6.81126771,-2.21456700,-1.73782000,1.98388300,0.00790477
-6.73126771,-2.67593500,-1.26107300,2.50676700,0.00787402
-6.65126771,-3.10654500,-0.83046260,3.01427100,0.00787402
-6.57126771,-3.49101900,-0.43061020,3.44488200,0.00784326
-6.49126771,-3.79859700,-0.12303150,3.78321800,0.00784326
-6.41126771,-4.02928100,0.09227362,4.02928100,0.00787402
-6.33126771,-4.18307100,0.21530510,4.19845000,0.00793553
-6.25126771,-4.27534400,0.24606300,4.27534400,0.00805856
-6.17126770,-4.29072300,0.18454720,4.29072300,0.00821235
-6.09126770,-4.25996500,0.06151574,4.25996500,0.00836614
-6.01126770,-4.18307100,-0.06151574,4.18307100,0.00851993
-5.93126770,-4.10617600,-0.18454720,4.10617600,0.00858145
-5.85126770,-4.02928100,-0.24606300,4.02928100,0.00855069
-5.77126770,-3.96776600,-0.23068400,3.96776600,0.00839690
-5.69126770,-3.93700800,-0.10765260,3.93700800,0.00805856
-5.61126770,-3.92162900,0.13841040,3.92162900,0.00756644
-5.53126770,-3.92162900,0.47674700,3.92162900,0.00688976
-5.45126769,-3.93700800,0.92273620,3.93700800,0.00602854
-5.37126769,-3.93700800,1.43024100,3.93700800,0.00501353
-5.29126769,-3.95238700,1.96850400,3.95238700,0.00396777
-5.21126769,-3.95238700,2.52214600,3.95238700,0.00286048
-5.13126769,-3.93700800,3.01427100,3.95238700,0.00184547
-5.05126769,-3.93700800,3.44488200,3.93700800,0.00098425
-4.97126769,-3.92162900,3.73708200,3.92162900,0.00036909
-4.89126769,-3.92162900,3.90625000,3.92162900,0.00003076
-4.81126769,-3.93700800,3.90625000,3.92162900,0.00003076
-4.73126769,-3.96776600,3.73708200,3.92162900,0.00036909
-4.65126768,-4.02928100,3.44488200,3.93700800,0.00098425
-4.57126768,-4.10617600,3.01427100,3.95238700,0.00184547
-4.49126768,-4.18307100,2.52214600,3.95238700,0.00286048
-4.41126768,-4.25996500,1.96850400,3.95238700,0.00396777
-4.33126768,-4.29072300,1.43024100,3.95238700,0.00501353
-4.25126768,-4.25996500,0.92273620,3.93700800,0.00599779
-4.17126768,-4.18307100,0.49212600,3.93700800,0.00685901
-4.09126768,-4.02928100,0.13841040,3.92162900,0.00756644
-4.01126768,-3.79859700,-0.10765260,3.90625000,0.00808932
-3.93126767,-3.52177600,-0.27682080,3.89087100,0.00848917
-3.85126767,-3.19881900,-0.33833660,3.84473400,0.00873524
-3.77126767,-2.84510300,-0.35371550,3.78321800,0.00891978
-3.69126767,-2.44525100,-0.30757870,3.72170300,0.00898130
-3.61126767,-2.04539800,-0.23068400,3.64480800,0.00898130
-3.53126767,-1.61478800,-0.16916830,3.59867100,0.00888903
-3.45126767,-1.16879900,-0.09227362,3.59867100,0.00873524
-3.37126767,-0.70743110,-0.04613681,3.66018700,0.00845842
-3.29126767,-0.24606300,-0.01537894,3.81397600,0.00808932
-3.21126766,0.24606300,0.00000000,4.06003900,0.00756644
-3.13126766,0.75356790,0.01537894,4.41375400,0.00695128
-3.05126766,1.26107300,0.00000000,4.85974400,0.00621309
-2.97126766,1.76857800,0.00000000,5.38262700,0.00535187
-2.89126766,2.27608300,0.00000000,5.92089000,0.00442913
-2.81126766,2.75283000,0.00000000,6.47453200,0.00347564
-2.73126766,3.18344000,0.00000000,6.96665800,0.00255290
-2.65126766,3.53715500,0.00000000,7.38188900,0.00166093
-2.57126766,3.78321800,0.00000000,7.67408900,0.00092274
-2.49126766,3.90625000,0.00000000,7.82787800,0.00027682
-2.41126765,3.89087100,0.00000000,7.81250000,-0.00024606
-2.33126765,3.73708200,0.00000000,7.62795300,-0.00061516
-2.25126765,3.42950300,0.00000000,7.28961600,-0.00086122
-2.17126765,3.01427100,0.00000000,6.79749000,-0.00101501
-2.09126765,2.52214600,0.00000000,6.22846900,-0.00107653
-2.01126765,1.96850400,0.00000000,5.62869100,-0.00107653
-1.93126765,1.43024100,0.00000000,5.04429100,-0.00101501
-1.85126765,0.92273620,0.00000000,4.56754400,-0.00086122
-1.77126765,0.49212600,-0.01537894,4.22920700,-0.00061516
-1.69126764,0.13841040,0.00000000,3.99852300,-0.00024606
-1.61126764,-0.10765260,0.01537894,3.87549200,0.00027682
-1.53126764,-0.27682080,0.04613681,3.79859700,0.00092274
-1.45126764,-0.33833660,0.09227362,3.75246000,0.00166093
-1.37126764,-0.35371550,0.16916830,3.73708200,0.00255290
-1.29126764,-0.30757870,0.23068400,3.72170300,0.00347564
-1.21126764,-0.23068400,0.30757870,3.79859700,0.00442913
-1.13126764,-0.16916830,0.33833660,4.18307100,0.00535187
-1.05126764,-0.09227362,0.33833660,5.05967000,0.00621309
-0.97126763,-0.04613681,0.26144190,6.22846900,0.00698204
-0.89126763,-0.01537894,0.10765260,7.39726800,0.00759720
-0.81126763,0.00000000,-0.12303150,8.15083600,0.00805856
-0.73126763,0.01537894,-0.44598910,8.18159400,0.00836614
-0.65126763,0.00000000,-0.83046260,7.28961600,0.00855069
-0.57126763,0.00000000,-1.26107300,5.59793300,0.00858145
-0.49126763,0.00000000,-1.73782000,3.56791300,0.00851993
-0.41126763,0.00000000,-2.21456700,2.04539800,0.00836614
-0.33126763,-0.01537894,-2.67593500,2.22994600,0.00821235
-0.25126763,-0.07689468,-3.10654500,5.52103800,0.00805856
-0.17126762,-0.10765260,-3.49101900,13.22589000,0.00793553
-0.09126762,-0.06151574,-3.79859700,26.42101000,0.00784326
-0.01126762,0.10765260,-4.02928100,45.73695000,0.00784326
0.06873238,0.47674700,-4.18307100,71.23524000,0.00793553
0.14873238,1.04576800,-4.27534400,102.22380000,0.00805856
0.22873238,1.78395700,-4.29072300,137.41080000,0.00821235
0.30873238,2.59904000,-4.25996500,174.82770000,0.00836614
0.38873238,3.35260800,-4.18307100,212.09090000,0.00851993
0.46873238,3.69094500,-4.10617600,246.61660000,0.00858145
0.54873239,3.38336600,-4.02928100,275.92890000,0.00855069
0.62873239,2.41449300,-3.96776600,297.87460000,0.00836614
0.70873239,0.89197830,-3.93700800,310.90060000,0.00805856
0.78873239,-0.93811510,-3.92162900,314.22240000,0.00759720
0.86873239,-2.86048200,-3.92162900,307.87090000,0.00698204
0.94873239,-4.67519700,-3.93700800,292.70730000,0.00621309
1.02873239,-6.32074300,-3.93700800,270.22330000,0.00535187
1.10873239,-7.98166800,-3.95238700,242.41820000,0.00442913
1.18873239,-10.05782000,-3.95238700,211.55260000,0.00347564
1.26873239,-13.36430000,-3.96776600,179.82590000,0.00249139
1.34873240,-18.76230000,-4.01390200,149.19110000,0.00150714
1.42873240,-26.60556000,-4.04466000,121.21680000,0.00064592
1.50873240,-37.01710000,-3.99852300,96.91805000,0.00012303
1.58873240,-49.82775000,-3.79859700,76.71013000,0.00003076
1.66873240,-64.59153000,-3.41412400,60.53149000,0.00052288
1.74873240,-80.78555000,-2.79896600,47.87463000,0.00159941
1.82873240,-97.88693000,-1.99926200,38.00135000,0.00319882
1.90873240,-115.48040000,-1.10728300,30.03506000,0.00507505
1.98873240,-133.41230000,-0.30757870,23.20681000,0.00682825
2.06873241,-152.06690000,0.07689468,16.85531000,0.00775098
2.14873241,-171.90570000,-0.27682080,10.68836000,0.00722810
2.22873241,-193.11330000,-1.33796700,4.62906000,0.00522884
2.30873241,-215.72030000,-2.96813500,-1.19955700,0.00196850
2.38873241,-239.54230000,-4.90588000,-6.47453200,-0.00209154
2.46873241,-264.24090000,-6.84362600,-10.90367000,-0.00642840
2.54873241,-289.29320000,-8.58144600,-14.24089000,-0.01061147
2.62873241,-314.13010000,-10.07320000,-16.36319000,-0.01454847
2.70873241,-338.16740000,-11.54958000,-17.34744000,-0.01851624
2.78873242,-360.92830000,-13.48733000,-17.56274000,-0.02331447
2.86873242,-382.24350000,-16.87069000,-17.42434000,-0.03060408
2.94873242,-402.03610000,-22.69931000,-17.11676000,-0.04198450
3.02873242,-420.06020000,-31.54220000,-16.67077000,-0.05853223
3.10873242,-436.05440000,-43.69156000,-16.07099000,-0.08083169
3.18873242,-449.80310000,-59.05511000,-15.22515000,-0.10882140
3.26873242,-461.07590000,-77.26378000,-14.05635000,-0.14200910
3.34873242,-469.68810000,-97.70238000,-12.45694000,-0.17934920
3.42873242,-475.59360000,-119.64810000,-10.42692000,-0.21948820
3.50873242,-478.80780000,-142.40900000,-8.02780400,-0.26110360
3.58873243,-479.42290000,-165.44660000,-5.44414400,-0.30293430
3.66873243,-477.79280000,-188.63800000,-2.87586100,-0.34424210
3.74873243,-474.28640000,-212.04480000,-0.49212600,-0.38462720
3.82873243,-469.19600000,-235.52840000,1.58403000,-0.42356670
3.90873243,-462.67530000,-258.98130000,3.26033400,-0.46072220
3.98873243,-454.83200000,-282.21880000,4.47527100,-0.49581690
4.06873243,-445.68160000,-304.99510000,5.21345900,-0.52860480
4.14873243,-435.16240000,-326.98690000,5.53641700,-0.55887060
4.22873243,-423.21300000,-347.85610000,5.50565900,-0.58633730
4.30873244,-409.81790000,-367.23360000,5.24421700,-0.61054380
4.38873244,-394.90030000,-384.73480000,4.82898600,-0.63112080
4.46873244,-378.58330000,-400.20610000,4.41375400,-0.64763780
4.54873244,-361.34350000,-413.47810000,4.07541800,-0.65969490
4.62873244,-343.70390000,-424.30480000,3.87549200,-0.66670770
4.70873244,-326.23340000,-432.40950000,3.86011300,-0.66821480
4.78873244,-309.39340000,-437.60760000,4.02928100,-0.66390870
4.86873244,-293.50700000,-439.77610000,4.36761800,-0.65363560
4.94873244,-278.68170000,-438.86870000,4.82898600,-0.63758000
5.02873245,-264.77910000,-435.00860000,5.36724900,-0.61626480
5.10873245,-251.50710000,-428.39560000,5.92089000,-0.59039740
5.18873245,-238.18900000,-419.33750000,6.47453200,-0.56099280
5.26873245,-224.30180000,-408.31080000,6.96665800,-0.52918920
5.34873245,-209.79940000,-395.82310000,7.38188900,-0.49624750
5.42873245,-194.88190000,-382.32030000,7.67408900,-0.46330590
5.50873245,-179.91820000,-368.12560000,7.82787800,-0.43125610
5.58873245,-165.41580000,-353.50020000,7.81250000,-0.40071360
5.66873245,-151.74400000,-338.52110000,7.62795300,-0.37192420
5.74873245,-139.19470000,-323.18840000,7.28961600,-0.34479580
5.82873246,-127.84510000,-307.45570000,6.79749000,-0.31911300
5.90873246,-117.52580000,-291.21550000,6.22846900,-0.29438360
5.98873246,-107.69870000,-274.31410000,5.62869100,-0.26996190
6.06873246,-97.81003000,-256.73600000,5.02891200,-0.24544780
6.14873246,-87.75221000,-238.86560000,4.52140800,-0.22105680
6.22873246,-77.61749000,-221.16450000,4.15231300,-0.19737330
6.30873246,-67.62119000,-204.18610000,3.95238700,-0.17510460
6.38873246,-58.05548000,-188.40730000,3.95238700,-0.15501970
6.46873246,-49.19722000,-174.19720000,4.15231300,-0.13770300
6.54873247,-41.27706000,-161.66340000,4.52140800,-0.12343130
6.62873247,-34.37192000,-150.69820000,5.02891200,-0.11211240
6.70873247,-28.40490000,-140.97870000,5.62869100,-0.10322340
6.78873247,-23.08378000,-131.82820000,6.22846900,-0.09568775
6.86873247,-18.08563000,-122.64700000,6.79749000,-0.08849040
6.94873247,-13.41043000,-113.31200000,7.28961600,-0.08117003
7.02873247,-9.15046700,-103.88470000,7.62795300,-0.07372662
7.10873247,-5.47490100,-94.65735000,7.81250000,-0.06634473
7.18873247,-2.58366100,-85.93749000,7.82787800,-0.05933194
7.26873248,-0.59977850,-78.06348000,7.67408900,-0.05314961
7.34873248,0.36909450,-71.23524000,7.38188900,-0.04804380
7.42873248,0.38447340,-65.52965000,6.96665800,-0.04413755
7.50873248,-0.41523130,-60.80831000,6.47453200,-0.04143086
7.58873248,-1.70706200,-56.64062000,5.92089000,-0.03937008
7.66873248,-3.15268200,-52.58058000,5.38262700,-0.03749385
7.74873248,-4.61368100,-48.55130000,4.85974400,-0.03567914
7.82873248,-5.99778500,-44.59892000,4.41375400,-0.03386442
7.90873248,-7.25885800,-40.90797000,4.06003900,-0.03217274
7.98873248,-8.42765700,-37.69378000,3.81397600,-0.03066560
8.06873249,-9.55032000,-35.17163000,3.66018700,-0.02949680
8.14873249,-10.70374000,-33.44918000,3.59867100,-0.02878937
8.22873249,-11.90330000,-32.52645000,3.59867100,-0.02854331
8.30873249,-13.17975000,-32.24963000,3.64480800,-0.02869710
8.38873249,-14.48696000,-32.23425000,3.72170300,-0.02912771
8.46873249,-15.74803000,-32.04970000,3.78321800,-0.02955832
8.54873249,-16.96297000,-31.44992000,3.84473400,-0.03001969
8.62873249,-18.10101000,-30.29650000,3.89087100,-0.03051181
8.70873249,-19.14677000,-28.54330000,3.90625000,-0.03106545
8.78873250,-20.03875000,-26.25184000,3.92162900,-0.03174213
8.86873250,-20.77694000,-23.54515000,3.93700800,-0.03263411
8.94873250,-21.31520000,-20.56164000,3.93700800,-0.03377214
9.02873250,-21.69968000,-17.43971000,3.95238700,-0.03509473
9.10873250,-21.93036000,-14.27165000,3.95238700,-0.03650960
9.18873250,-22.08415000,-11.07283000,3.95238700,-0.03786294
9.26873250,-22.19180000,-7.78174200,3.95238700,-0.03897022
9.34873250,-22.37635000,-4.45989200,3.93700800,-0.03967766
9.42873250,-22.68393000,-1.09190400,3.92162900,-0.03992372
9.50873251,-23.19143000,2.26070400,3.92162900,-0.03958539
9.58873251,-23.92962000,5.56717500,3.92162900,-0.03872416
9.66873251,-24.89850000,8.78137200,3.92162900,-0.03730930
9.74873251,-26.06730000,11.87254000,3.93700800,-0.03543307
9.82873251,-27.35913000,14.79454000,3.95238700,-0.03318775
9.90873251,-28.68172000,17.51661000,3.95238700,-0.03063484
9.98873251,-29.89665000,20.03875000,3.95238700,-0.02792815
10.06873251,-30.89628000,22.31484000,3.95238700,-0.02509842
10.14873251,-31.55758000,24.28334000,3.93700800,-0.02223794
10.22873251,-31.81902000,25.88275000,3.92162900,-0.01950049
10.30873252,-31.63447000,27.05155000,3.92162900,-0.01688607
10.38873252,-31.01931000,27.75898000,3.92162900,-0.01454847
10.46873252,-30.01968000,27.98966000,3.92162900,-0.01242618
10.54873252,-28.66634000,27.78974000,3.93700800,-0.01058071
10.62873252,-27.03617000,27.15920000,3.95238700,-0.00895054
10.70873252,-25.19070000,26.17495000,3.95238700,-0.00750492
10.78873252,-23.14530000,24.88312000,3.95238700,-0.00615158
10.86873252,-20.91535000,23.31447000,3.95238700,-0.00476747
10.94873252,-18.48548000,21.46899000,3.93700800,-0.00338337
11.02873253,-15.90182000,19.36208000,3.92162900,-0.00199926
11.10873253,-13.16437000,16.97834000,3.92162900,-0.00064592
11.18873253,-10.33464000,14.33317000,3.92162900,0.00061516
11.26873253,-7.44340500,11.44193000,3.92162900,0.00169168
11.34873253,-4.49065000,8.33538300,3.93700800,0.00258366
11.42873253,-1.55327200,5.07504900,3.95238700,0.00326034
11.50873253,1.35334600,1.70706200,3.95238700,0.00375246
11.58873253,4.21382900,-1.70706200,3.95238700,0.00415231
11.66873253,7.02817400,-5.09042800,3.95238700,0.00461368
11.74873253,9.73486600,-8.38152000,3.93700800,0.00525960
