Time,Channel A,Channel B,Channel C,Channel D
(ns),(mV),(mV),(mV),(V)

-15.47692383,4.04466000,-3.90625000,4.16769200,0.00805856
-15.39692382,4.22920700,-3.75246000,4.69057600,0.00839690
-15.31692382,4.36761800,-3.44488200,5.19808000,0.00855069
-15.23692382,4.44451300,-3.02965000,5.72096400,0.00858145
-15.15692382,4.49065000,-2.52214600,6.22846900,0.00851993
-15.07692382,4.49065000,-1.96850400,6.70521600,0.00836614
-14.99692382,4.44451300,-1.43024100,7.13582600,0.00821235
-14.91692382,4.36761800,-0.92273620,7.47416300,0.00805856
-14.83692382,4.22920700,-0.49212600,7.72022600,0.00793553
-14.75692382,4.04466000,-0.13841040,7.82787800,0.00787402
-14.67692381,3.78321800,0.10765260,7.81250000,0.00784326
-14.59692381,3.47564000,0.27682080,7.65871000,0.00784326
-14.51692381,3.10654500,0.33833660,7.36651000,0.00787402
-14.43692381,2.67593500,0.35371550,6.96665800,0.00787402
-14.35692381,2.21456700,0.30757870,6.47453200,0.00790477
-14.27692381,1.73782000,0.23068400,5.92089000,0.00790477
-14.19692381,1.26107300,0.16916830,5.38262700,0.00790477
-14.11692381,0.83046260,0.09227362,4.85974400,0.00787402
-14.03692381,0.44598910,0.04613681,4.41375400,0.00784326
-13.95692380,0.12303150,0.01537894,4.06003900,0.00784326
-13.87692380,-0.10765260,0.00000000,3.81397600,0.00784326
-13.79692380,-0.26144190,-0.01537894,3.66018700,0.00784326
-13.71692380,-0.33833660,0.00000000,3.59867100,0.00787402
-13.63692380,-0.33833660,0.00000000,3.59867100,0.00790477
-13.55692380,-0.30757870,0.00000000,3.64480800,0.00790477
-13.47692380,-0.23068400,0.00000000,3.72170300,0.00790477
-13.39692380,-0.16916830,0.00000000,3.78321800,0.00790477
-13.31692380,-0.09227362,0.00000000,3.82935500,0.00787402
-13.23692380,-0.04613681,0.00000000,3.87549200,0.00784326
-13.15692379,-0.01537894,0.00000000,3.90625000,0.00784326
-13.07692379,0.00000000,0.00000000,3.93700800,0.00784326
-12.99692379,0.01537894,0.00000000,3.98314500,0.00784326
-12.91692379,0.00000000,0.00000000,4.04466000,0.00787402
-12.83692379,0.00000000,0.00000000,4.10617600,0.00790477
-12.75692379,0.00000000,0.00000000,4.18307100,0.00790477
-12.67692379,0.00000000,0.00000000,4.25996500,0.00790477
-12.59692379,0.00000000,0.00000000,4.29072300,0.00790477
-12.51692379,0.00000000,0.00000000,4.27534400,0.00787402
-12.43692378,0.00000000,0.00000000,4.18307100,0.00784326
-12.35692378,0.00000000,0.00000000,4.02928100,0.00784326
-12.27692378,0.00000000,0.00000000,3.79859700,0.00784326
-12.19692378,0.00000000,0.00000000,3.49101900,0.00784326
-12.11692378,0.00000000,0.00000000,3.10654500,0.00787402
-12.03692378,0.00000000,0.00000000,2.67593500,0.00790477
-11.95692378,0.00000000,0.00000000,2.21456700,0.00790477
-11.87692378,0.00000000,0.00000000,1.73782000,0.00790477
-11.79692378,0.00000000,0.00000000,1.26107300,0.00790477
-11.71692377,0.00000000,0.00000000,0.83046260,0.00787402
-11.63692377,0.01537894,0.00000000,0.44598910,0.00784326
-11.55692377,0.00000000,0.00000000,0.12303150,0.00784326
-11.47692377,-0.01537894,0.00000000,-0.10765260,0.00784326
-11.39692377,-0.04613681,0.00000000,-0.26144190,0.00784326
-11.31692377,-0.09227362,0.00000000,-0.33833660,0.00787402
-11.23692377,-0.16916830,0.00000000,-0.33833660,0.00790477
-11.15692377,-0.23068400,0.00000000,-0.30757870,0.00790477
-11.07692377,-0.30757870,0.00000000,-0.23068400,0.00790477
-10.99692377,-0.35371550,0.00000000,-0.15378940,0.00787402
-10.91692376,-0.35371550,0.00000000,-0.09227362,0.00787402
-10.83692376,-0.27682080,0.00000000,-0.03075787,0.00784326
-10.75692376,-0.12303150,0.00000000,0.00000000,0.00784326
-10.67692376,0.15378940,0.00000000,0.00000000,0.00787402
-10.59692376,0.53826270,0.00000000,-0.03075787,0.00793553
-10.51692376,1.01501000,0.00000000,-0.09227362,0.00805856
-10.43692376,1.59940900,0.00000000,-0.15378940,0.00821235
-10.35692376,2.21456700,0.00000000,-0.23068400,0.00836614
-10.27692376,2.82972400,0.00000000,-0.30757870,0.00851993
-10.19692375,3.36798700,0.00000000,-0.33833660,0.00858145
-10.11692375,3.78321800,0.00000000,-0.33833660,0.00855069
-10.03692375,3.99852300,0.00000000,-0.26144190,0.00839690
-9.95692375,4.01390200,0.00000000,-0.10765260,0.00805856
-9.87692375,3.76783900,0.00000000,0.12303150,0.00756644
-9.79692375,3.30647100,0.00000000,0.44598910,0.00688976
-9.71692375,2.61441900,0.00000000,0.83046260,0.00602854
-9.63692375,1.75319900,0.00000000,1.26107300,0.00501353
-9.55692375,0.78432570,0.00000000,1.73782000,0.00396777
-9.47692374,-0.24606300,0.00000000,2.21456700,0.00286048
-9.39692374,-1.24569400,0.00000000,2.67593500,0.00184547
-9.31692374,-2.18380900,0.00000000,3.10654500,0.00098425
-9.23692374,-2.99889300,0.01537894,3.49101900,0.00036909
-9.15692374,-3.66018700,0.00000000,3.79859700,0.00003076
-9.07692374,-4.13693400,-0.01537894,4.02928100,0.00003076
-8.99692374,-4.45989200,-0.04613681,4.18307100,0.00036909
-8.91692374,-4.61368100,-0.09227362,4.27534400,0.00098425
-8.83692374,-4.62906000,-0.16916830,4.29072300,0.00184547
-8.75692374,-4.56754400,-0.23068400,4.25996500,0.00286048
-8.67692373,-4.42913300,-0.30757870,4.18307100,0.00396777
-8.59692373,-4.27534400,-0.35371550,4.10617600,0.00501353
-8.51692373,-4.12155500,-0.33833660,4.02928100,0.00602854
-8.43692373,-3.99852300,-0.27682080,3.96776600,0.00688976
-8.35692373,-3.93700800,-0.10765260,3.93700800,0.00756644
-8.27692373,-3.92162900,0.13841040,3.92162900,0.00805856
-8.19692373,-3.95238700,0.49212600,3.92162900,0.00839690
-8.11692373,-4.01390200,0.92273620,3.93700800,0.00855069
-8.03692373,-4.10617600,1.43024100,3.93700800,0.00858145
-7.95692372,-4.18307100,1.96850400,3.95238700,0.00851993
-7.87692372,-4.25996500,2.52214600,3.95238700,0.00836614
-7.79692372,-4.29072300,3.01427100,3.95238700,0.00821235
-7.71692372,-4.27534400,3.42950300,3.93700800,0.00805856
-7.63692372,-4.18307100,3.73708200,3.92162900,0.00793553
-7.55692372,-4.02928100,3.89087100,3.92162900,0.00787402
-7.47692372,-3.79859700,3.90625000,3.92162900,0.00784326
-7.39692372,-3.49101900,3.78321800,3.92162900,0.00784326
-7.31692372,-3.10654500,3.53715500,3.93700800,0.00787402
-7.23692372,-2.67593500,3.18344000,3.95238700,0.00787402
-7.15692371,-2.21456700,2.75283000,3.95238700,0.00790477
-7.07692371,-1.73782000,2.27608300,3.95238700,0.00790477
-6.99692371,-1.26107300,1.78395700,3.95238700,0.00790477
-6.91692371,-0.83046260,1.26107300,3.93700800,0.00787402
-6.83692371,-0.44598910,0.75356790,3.92162900,0.00784326
-6.75692371,-0.12303150,0.24606300,3.92162900,0.00784326
-6.67692371,0.10765260,-0.24606300,3.92162900,0.00784326
-6.59692371,0.26144190,-0.75356790,3.92162900,0.00784326
-6.51692371,0.33833660,-1.26107300,3.93700800,0.00787402
-6.43692370,0.33833660,-1.78395700,3.95238700,0.00790477
-6.35692370,0.30757870,-2.27608300,3.95238700,0.00790477
-6.27692370,0.23068400,-2.75283000,3.95238700,0.00790477
-6.19692370,0.16916830,-3.18344000,3.95238700,0.00790477
-6.11692370,0.10765260,-3.53715500,3.93700800,0.00787402
-6.03692370,0.04613681,-3.79859700,3.92162900,0.00784326
-5.95692370,0.01537894,-3.92162900,3.92162900,0.00784326
-5.87692370,-0.01537894,-3.89087100,3.92162900,0.00784326
-5.79692370,-0.04613681,-3.69094500,3.92162900,0.00784326
-5.71692369,-0.10765260,-3.33722900,3.93700800,0.00787402
-5.63692369,-0.16916830,-2.86048200,3.95238700,0.00790477
-5.55692369,-0.23068400,-2.27608300,3.95238700,0.00790477
-5.47692369,-0.30757870,-1.67630400,3.95238700,0.00790477
-5.39692369,-0.35371550,-1.09190400,3.93700800,0.00787402
-5.31692369,-0.33833660,-0.58439960,3.93700800,0.00787402
-5.23692369,-0.27682080,-0.23068400,3.92162900,0.00784326
-5.15692369,-0.10765260,-0.03075787,3.92162900,0.00784326
-5.07692369,0.13841040,-0.01537894,3.93700800,0.00787402
-4.99692369,0.49212600,-0.16916830,3.96776600,0.00793553
-4.91692368,0.92273620,-0.49212600,4.02928100,0.00805856
-4.83692368,1.43024100,-0.92273620,4.10617600,0.00821235
-4.75692368,1.96850400,-1.43024100,4.18307100,0.00836614
-4.67692368,2.52214600,-1.98388300,4.25996500,0.00851993
-4.59692368,3.01427100,-2.50676700,4.29072300,0.00858145
-4.51692368,3.44488200,-2.99889300,4.27534400,0.00855069
-4.43692368,3.73708200,-3.42950300,4.18307100,0.00836614
-4.35692368,3.90625000,-3.78321800,4.02928100,0.00805856
-4.27692368,3.90625000,-4.04466000,3.79859700,0.00759720
-4.19692367,3.73708200,-4.24458600,3.49101900,0.00698204
-4.11692367,3.44488200,-4.36761800,3.10654500,0.00621309
-4.03692367,3.01427100,-4.45989200,2.67593500,0.00535187
-3.95692367,2.52214600,-4.49065000,2.21456700,0.00442913
-3.87692367,1.96850400,-4.49065000,1.73782000,0.00347564
-3.79692367,1.43024100,-4.44451300,1.27645200,0.00252215
-3.71692367,0.92273620,-4.36761800,0.83046260,0.00166093
-3.63692367,0.47674700,-4.22920700,0.46136810,0.00089198
-3.55692367,0.13841040,-4.04466000,0.13841040,0.00024606
-3.47692366,-0.10765260,-3.78321800,-0.12303150,-0.00021531
-3.39692366,-0.23068400,-3.47564000,-0.30757870,-0.00052288
-3.31692366,-0.24606300,-3.10654500,-0.43061020,-0.00067667
-3.23692366,-0.18454720,-2.67593500,-0.50750490,-0.00067667
-3.15692366,-0.06151574,-2.21456700,-0.53826270,-0.00061516
-3.07692366,0.06151574,-1.73782000,-0.53826270,-0.00046137
-2.99692366,0.18454720,-1.26107300,-0.50750490,-0.00030758
-2.91692366,0.24606300,-0.83046260,-0.43061020,-0.00018455
-2.83692366,0.23068400,-0.44598910,-0.30757870,-0.00006152
-2.75692366,0.10765260,-0.12303150,-0.12303150,0.00000000
-2.67692365,-0.13841040,0.10765260,0.13841040,0.00000000
-2.59692365,-0.47674700,0.26144190,0.49212600,-0.00006152
-2.51692365,-0.92273620,0.33833660,0.93811510,-0.00018455
-2.43692365,-1.43024100,0.33833660,1.43024100,-0.00030758
-2.35692365,-1.96850400,0.30757870,1.96850400,-0.00046137
-2.27692365,-2.52214600,0.23068400,2.52214600,-0.00061516
-2.19692365,-3.02965000,0.16916830,3.02965000,-0.00070743
-2.11692365,-3.44488200,0.09227362,3.44488200,-0.00067667
-2.03692365,-3.75246000,0.04613681,3.75246000,-0.00055364
-1.95692364,-3.90625000,0.01537894,3.90625000,-0.00021531
-1.87692364,-3.89087100,0.00000000,3.89087100,0.00027682
-1.79692364,-3.70632400,-0.01537894,3.70632400,0.00098425
-1.71692364,-3.35260800,0.00000000,3.35260800,0.00184547
-1.63692364,-2.86048200,0.00000000,2.86048200,0.00286048
-1.55692364,-2.27608300,0.00000000,2.27608300,0.00393701
-1.47692364,-1.67630400,0.00000000,1.67630400,0.00504429
-1.39692364,-1.09190400,0.00000000,1.13804100,0.00605930
-1.31692364,-0.58439960,0.00000000,0.75356790,0.00688976
-1.23692363,-0.21530510,0.00000000,0.47674700,0.00750492
-1.15692363,-0.03075787,0.00000000,0.18454720,0.00781250
-1.07692363,-0.03075787,0.00000000,-0.24606300,0.00778174
-0.99692363,-0.21530510,0.00000000,-0.95349410,0.00741265
-0.91692363,-0.58439960,0.00000000,-1.98388300,0.00670522
-0.83692363,-1.09190400,0.00000000,-3.29109200,0.00572097
-0.75692363,-1.67630400,0.00000000,-4.72133400,0.00455217
-0.67692363,-2.27608300,0.00000000,-5.93626900,0.00335261
-0.59692363,-2.86048200,0.00000000,-6.32074300,0.00218381
-0.51692363,-3.35260800,0.00000000,-5.30573300,0.00116880
-0.43692362,-3.70632400,0.00000000,-2.72207200,0.00046137
-0.35692362,-3.89087100,0.00000000,1.36872500,0.00006152
-0.27692362,-3.89087100,0.00000000,6.75135300,0.00003076
-0.19692362,-3.70632400,0.00000000,13.04134000,0.00033834
-0.11692362,-3.35260800,0.00000000,19.88497000,0.00098425
-0.03692362,-2.86048200,0.00000000,27.05155000,0.00184547
0.04307638,-2.27608300,0.00000000,34.52571000,0.00286048
0.12307638,-1.67630400,0.00000000,42.59965000,0.00396777
0.20307638,-1.12266200,0.00000000,51.88853000,0.00501353
0.28307639,-0.69205210,0.00000000,63.25356000,0.00602854
0.36307639,-0.36909450,-0.01537894,77.52522000,0.00688976
0.44307639,-0.12303150,0.00000000,95.42630000,0.00756644
0.52307639,0.13841040,0.01537894,117.43360000,0.00805856
0.60307639,0.47674700,0.04613681,143.54700000,0.00839690
0.68307639,0.93811510,0.09227362,173.28990000,0.00855069
0.76307639,1.50713600,0.16916830,205.63170000,0.00858145
0.84307639,2.12229300,0.23068400,239.01940000,0.00851993
0.92307639,2.58366100,0.30757870,271.53050000,0.00836614
1.00307639,2.53752400,0.33833660,301.01190000,0.00821235
1.08307640,1.64554600,0.33833660,325.37210000,0.00805856
1.16307640,-0.09227362,0.26144190,342.76570000,0.00793553
1.24307640,-2.52214600,0.10765260,351.83930000,0.00784326
1.32307640,-5.38262700,-0.12303150,351.90080000,0.00784326
1.40307640,-8.36614100,-0.44598910,342.93490000,0.00793553
1.48307640,-11.22662000,-0.83046260,325.67970000,0.00805856
1.56307640,-13.90256000,-1.26107300,301.50400000,0.00821235
1.64307640,-16.59387000,-1.73782000,272.23790000,0.00836614
1.72307640,-19.76193000,-2.21456700,239.94220000,0.00851993
1.80307641,-24.37561000,-2.72207200,206.66210000,0.00848917
1.88307641,-31.46530000,-3.24495600,174.28950000,0.00827387
1.96307641,-41.56926000,-3.69094500,144.31590000,0.00799705
2.04307641,-54.90280000,-3.92162900,117.74110000,0.00781250
2.12307641,-71.35827000,-3.82935500,95.05721000,0.00799705
2.20307641,-90.50504000,-3.27571300,76.23338000,0.00870448
2.28307641,-111.69720000,-2.27608300,60.85445000,0.00999631
2.36307641,-134.24270000,-0.87659940,48.24372000,0.01184178
2.44307641,-157.46490000,0.72281000,37.61687000,0.01390256
2.52307642,-180.91780000,2.19918800,28.18959000,0.01565576
2.60307642,-204.61670000,3.01427100,19.36208000,0.01611713
2.68307642,-228.74630000,2.62979800,10.91905000,0.01439468
2.76307642,-253.21420000,0.93811510,2.87586100,0.01030389
2.84307642,-277.91280000,-2.03002000,-4.50602900,0.00393701
2.92307642,-302.56520000,-6.02854300,-10.87291000,-0.00430610
3.00307642,-326.87930000,-10.70374000,-15.87106000,-0.01381029
3.08307642,-350.43980000,-15.76341000,-19.23905000,-0.02402190
3.16307642,-372.83160000,-21.00763000,-20.94611000,-0.03454109
3.24307642,-393.68540000,-26.48253000,-21.14604000,-0.04549089
3.32307643,-412.69380000,-32.49569000,-20.42323000,-0.05739419
3.40307643,-429.85660000,-39.90834000,-19.33132000,-0.07163509
3.48307643,-445.22020000,-49.59707000,-18.17790000,-0.08968996
3.56307643,-458.61520000,-62.03863000,-17.10138000,-0.11254310
3.64307643,-469.85720000,-77.47908000,-16.14788000,-0.14074800
3.72307643,-478.74630000,-95.79539000,-15.22515000,-0.17436640
3.80307643,-485.09780000,-116.64920000,-14.22552000,-0.21287520
3.88307643,-488.75800000,-139.41000000,-13.01058000,-0.25532110
3.96307643,-489.65000000,-163.37040000,-11.50344000,-0.30028910
4.04307644,-487.85060000,-187.82290000,-9.70410800,-0.34627210
4.12307644,-483.49840000,-212.21390000,-7.73560500,-0.39176300
4.20307644,-476.97770000,-236.37420000,-5.73634300,-0.43568530
4.28307644,-468.78070000,-260.27310000,-3.84473400,-0.47714690
4.36307644,-459.27660000,-283.72600000,-2.12229300,-0.51525590
4.44307644,-448.78810000,-306.57910000,-0.64591530,-0.54939720
4.52307644,-437.48460000,-328.61710000,0.56902060,-0.57910930
4.60307644,-425.45830000,-349.60930000,1.50713600,-0.60414620
4.68307644,-412.66300000,-369.29440000,2.18380900,-0.62453860
4.76307645,-399.02190000,-387.38000000,2.64517700,-0.64028670
4.84307645,-384.44260000,-403.55870000,2.95275600,-0.65160550
4.92307645,-368.69460000,-417.59960000,3.16806100,-0.65871060
5.00307645,-351.79320000,-429.37990000,3.32185000,-0.66184790
5.08307645,-334.13810000,-438.85330000,3.49101900,-0.66126350
5.16307645,-316.25240000,-445.78920000,3.66018700,-0.65695740
5.24307645,-298.72050000,-450.03380000,3.82935500,-0.64880660
5.32307645,-282.06510000,-451.38710000,3.99852300,-0.63674950
5.40307645,-266.64000000,-449.77240000,4.15231300,-0.62066320
5.48307645,-252.59900000,-445.18950000,4.24458600,-0.60063980
5.56307646,-239.80370000,-437.71530000,4.27534400,-0.57689470
5.64307646,-227.90050000,-427.62670000,4.25996500,-0.54979700
5.72307646,-216.15090000,-415.24660000,4.18307100,-0.51996180
5.80307646,-203.89390000,-401.03650000,4.10617600,-0.48818900
5.88307646,-190.96030000,-385.64220000,4.02928100,-0.45555490
5.96307646,-177.45760000,-369.57120000,3.96776600,-0.42304380
6.04307646,-163.72420000,-353.28490000,3.93700800,-0.39164000
6.12307646,-150.15990000,-337.10630000,3.92162900,-0.36195870
6.20307646,-137.19550000,-321.15830000,3.92162900,-0.33443040
6.28307647,-125.12300000,-305.45650000,3.93700800,-0.30908590
6.36307647,-114.03480000,-289.87760000,3.93700800,-0.28561760
6.44307647,-103.90010000,-274.23720000,3.95238700,-0.26359500
6.52307647,-94.21136000,-258.22770000,3.95238700,-0.24218750
6.60307647,-84.50725000,-241.64920000,3.95238700,-0.22071850
6.68307647,-74.74163000,-224.79390000,3.93700800,-0.19928030
6.76307647,-65.00677000,-208.07700000,3.93700800,-0.17830340
6.84307647,-55.53334000,-191.99060000,3.92162900,-0.15840310
6.92307647,-46.61356000,-177.04230000,3.90625000,-0.14022510
7.00307648,-38.49348000,-163.60110000,3.89087100,-0.12441560
7.08307648,-31.35765000,-151.80550000,3.84473400,-0.11122050
7.16307648,-25.23683000,-141.60920000,3.78321800,-0.10060900
7.24307648,-20.10027000,-132.67410000,3.72170300,-0.09224287
7.32307648,-15.59424000,-124.33870000,3.64480800,-0.08513779
7.40307648,-11.42655000,-115.98790000,3.59867100,-0.07834031
7.48307648,-7.56643700,-107.46800000,3.59867100,-0.07154281
7.56307648,-4.10617600,-98.84042000,3.66018700,-0.06474532
7.64307648,-1.19955700,-90.38200000,3.81397600,-0.05807086
7.72307648,0.99963080,-82.36958000,4.06003900,-0.05191929
7.80307649,2.32221900,-75.14149000,4.41375400,-0.04653666
7.88307649,2.72207200,-68.89763000,4.85974400,-0.04226132
7.96307649,2.21456700,-63.69955000,5.38262700,-0.03915477
8.04307649,0.95349410,-59.43959000,5.92089000,-0.03712475
8.12307649,-0.73818890,-55.67175000,6.47453200,-0.03574065
8.20307649,-2.55290300,-51.98080000,6.96665800,-0.03460261
8.28307649,-4.32148100,-48.22834000,7.38188900,-0.03352608
8.36307649,-5.90551100,-44.47588000,7.67408900,-0.03254183
8.44307649,-7.25885800,-40.89259000,7.82787800,-0.03171137
8.52307650,-8.38152000,-37.67839000,7.82787800,-0.03115773
8.60307650,-9.30425600,-35.04860000,7.67408900,-0.03097318
8.68307650,-10.10396000,-33.12623000,7.38188900,-0.03128076
8.76307650,-10.81139000,-31.92667000,6.96665800,-0.03208046
8.84307650,-11.51882000,-31.28075000,6.47453200,-0.03328002
8.92307650,-12.19550000,-30.86552000,5.92089000,-0.03463336
9.00307650,-12.88755000,-30.23499000,5.38262700,-0.03592520
9.08307650,-13.61036000,-29.12770000,4.85974400,-0.03709400
9.16307650,-14.41006000,-27.38988000,4.41375400,-0.03807825
9.24307651,-15.25591000,-24.97539000,4.06003900,-0.03887795
9.32307651,-16.13251000,-21.94574000,3.81397600,-0.03955463
9.40307651,-17.00910000,-18.40859000,3.66018700,-0.04010827
9.48307651,-17.87033000,-14.51772000,3.59867100,-0.04063115
9.56307651,-18.68541000,-10.44230000,3.59867100,-0.04112328
9.64307651,-19.42360000,-6.30536400,3.64480800,-0.04155389
9.72307651,-20.10027000,-2.13767200,3.72170300,-0.04183071
9.80307651,-20.76156000,2.01464100,3.78321800,-0.04183071
9.88307651,-21.43824000,6.09005900,3.84473400,-0.04155389
9.96307651,-22.17643000,10.05782000,3.89087100,-0.04090797
10.04307652,-23.03765000,13.85642000,3.90625000,-0.03989296
10.12307652,-24.06804000,17.47047000,3.92162900,-0.03847810
10.20307652,-25.26759000,20.83846000,3.93700800,-0.03669414
10.28307652,-26.60556000,23.99114000,3.93700800,-0.03457185
10.36307652,-28.03580000,26.86700000,3.95238700,-0.03217274
10.44307652,-29.45066000,29.43528000,3.95238700,-0.02955832
10.52307652,-30.74249000,31.68061000,3.95238700,-0.02685162
10.60307652,-31.75750000,33.52608000,3.95238700,-0.02408342
10.68307652,-32.34190000,34.86405000,3.93700800,-0.02134596
10.76307653,-32.40342000,35.58686000,3.92162900,-0.01885458
10.84307653,-31.86516000,35.58686000,3.92162900,-0.01664001
10.92307653,-30.74249000,34.81791000,3.92162900,-0.01485605
11.00307653,-29.03543000,33.26464000,3.92162900,-0.01353346
11.08307653,-26.80548000,30.97318000,3.93700800,-0.01264149
11.16307653,-24.17569000,28.03580000,3.95238700,-0.01214936
11.24307653,-21.23831000,24.60630000,3.95238700,-0.01193406
11.32307653,-18.11639000,20.86922000,3.95238700,-0.01178027
11.40307653,-14.87143000,16.96297000,3.95238700,-0.01150344
11.48307653,-11.59572000,13.05672000,3.93700800,-0.01094980
11.56307654,-8.39689900,9.24274100,3.92162900,-0.01002707
