Time,Channel A,Channel B,Channel C,Channel D
(ns),(mV),(mV),(mV),(V)

-15.37999983,-0.24606300,-0.13841040,0.01537894,0.00778174
-15.29999982,-0.70743110,-0.49212600,0.18454720,0.00741265
-15.21999982,-1.16879900,-0.92273620,0.49212600,0.00670522
-15.13999982,-1.61478800,-1.43024100,0.92273620,0.00572097
-15.05999982,-2.04539800,-1.96850400,1.43024100,0.00455217
-14.97999982,-2.44525100,-2.52214600,1.98388300,0.00335261
-14.89999982,-2.84510300,-3.01427100,2.50676700,0.00218381
-14.81999982,-3.19881900,-3.44488200,3.01427100,0.00116880
-14.73999982,-3.52177600,-3.73708200,3.44488200,0.00046137
-14.65999982,-3.79859700,-3.90625000,3.78321800,0.00006152
-14.57999981,-4.02928100,-3.90625000,4.02928100,0.00003076
-14.49999981,-4.18307100,-3.73708200,4.19845000,0.00033834
-14.41999981,-4.25996500,-3.44488200,4.27534400,0.00098425
-14.33999981,-4.29072300,-3.01427100,4.29072300,0.00184547
-14.25999981,-4.25996500,-2.52214600,4.25996500,0.00286048
-14.17999981,-4.18307100,-1.96850400,4.18307100,0.00396777
-14.09999981,-4.10617600,-1.43024100,4.10617600,0.00501353
-14.01999981,-4.02928100,-0.92273620,4.02928100,0.00602854
-13.93999981,-3.96776600,-0.49212600,3.96776600,0.00688976
-13.85999980,-3.92162900,-0.13841040,3.92162900,0.00756644
-13.77999980,-3.92162900,0.10765260,3.92162900,0.00805856
-13.69999980,-3.96776600,0.27682080,3.96776600,0.00839690
-13.61999980,-4.02928100,0.33833660,4.02928100,0.00855069
-13.53999980,-4.10617600,0.35371550,4.10617600,0.00858145
-13.45999980,-4.18307100,0.30757870,4.18307100,0.00851993
-13.37999980,-4.25996500,0.23068400,4.25996500,0.00836614
-13.29999980,-4.29072300,0.16916830,4.29072300,0.00821235
-13.21999980,-4.27534400,0.09227362,4.27534400,0.00805856
-13.13999980,-4.19845000,0.04613681,4.18307100,0.00793553
-13.05999979,-4.02928100,0.01537894,4.02928100,0.00784326
-12.97999979,-3.78321800,0.00000000,3.79859700,0.00784326
-12.89999979,-3.44488200,-0.01537894,3.49101900,0.00793553
-12.81999979,-3.01427100,0.00000000,3.10654500,0.00805856
-12.73999979,-2.50676700,0.00000000,2.67593500,0.00821235
-12.65999979,-1.98388300,0.00000000,2.21456700,0.00836614
-12.57999979,-1.43024100,0.00000000,1.73782000,0.00851993
-12.49999979,-0.92273620,0.00000000,1.26107300,0.00858145
-12.41999979,-0.47674700,0.00000000,0.83046260,0.00855069
-12.33999978,-0.16916830,0.00000000,0.44598910,0.00839690
-12.25999978,-0.01537894,0.00000000,0.12303150,0.00805856
-12.17999978,-0.04613681,0.00000000,-0.10765260,0.00756644
-12.09999978,-0.27682080,0.00000000,-0.26144190,0.00688976
-12.01999978,-0.69205210,0.00000000,-0.33833660,0.00602854
-11.93999978,-1.24569400,0.00000000,-0.33833660,0.00501353
-11.85999978,-1.90698800,0.00000000,-0.30757870,0.00396777
-11.77999978,-2.58366100,0.00000000,-0.23068400,0.00286048
-11.69999978,-3.21419800,0.00000000,-0.15378940,0.00184547
-11.61999977,-3.69094500,0.00000000,-0.09227362,0.00098425
-11.53999977,-3.98314500,0.00000000,-0.03075787,0.00033834
-11.45999977,-4.01390200,0.00000000,0.00000000,0.00003076
-11.37999977,-3.76783900,0.00000000,0.00000000,0.00006152
-11.29999977,-3.22957700,0.00000000,-0.03075787,0.00046137
-11.21999977,-2.42987200,0.00000000,-0.09227362,0.00116880
-11.13999977,-1.43024100,0.00000000,-0.15378940,0.00218381
-11.05999977,-0.30757870,0.00000000,-0.23068400,0.00335261
-10.97999977,0.84584150,0.00000000,-0.30757870,0.00455217
-10.89999977,1.93774600,0.00000000,-0.33833660,0.00572097
-10.81999976,2.86048200,0.00000000,-0.33833660,0.00670522
-10.73999976,3.52177600,0.00000000,-0.26144190,0.00741265
-10.65999976,3.87549200,0.00000000,-0.10765260,0.00778174
-10.57999976,3.87549200,0.00000000,0.12303150,0.00778174
-10.49999976,3.52177600,0.00000000,0.44598910,0.00741265
-10.41999976,2.86048200,0.00000000,0.83046260,0.00670522
-10.33999976,1.93774600,0.00000000,1.26107300,0.00572097
-10.25999976,0.84584150,0.00000000,1.73782000,0.00455217
-10.17999976,-0.30757870,0.00000000,2.21456700,0.00335261
-10.09999975,-1.43024100,0.00000000,2.67593500,0.00218381
-10.01999975,-2.41449300,0.00000000,3.10654500,0.00116880
-9.93999975,-3.21419800,-0.01537894,3.49101900,0.00046137
-9.85999975,-3.75246000,0.00000000,3.79859700,0.00006152
-9.77999975,-4.02928100,0.01537894,4.01390200,0.00003076
-9.69999975,-4.02928100,0.04613681,4.15231300,0.00033834
-9.61999975,-3.78321800,0.09227362,4.18307100,0.00098425
-9.53999975,-3.36798700,0.16916830,4.12155500,0.00184547
-9.45999975,-2.82972400,0.23068400,4.01390200,0.00286048
-9.37999974,-2.21456700,0.30757870,3.89087100,0.00396777
-9.29999974,-1.59940900,0.35371550,3.76783900,0.00501353
-9.21999974,-1.01501000,0.33833660,3.69094500,0.00602854
-9.13999974,-0.53826270,0.27682080,3.70632400,0.00688976
-9.05999974,-0.15378940,0.10765260,3.81397600,0.00756644
-8.97999974,0.12303150,-0.13841040,4.06003900,0.00805856
-8.89999974,0.27682080,-0.49212600,4.39837600,0.00839690
-8.81999974,0.35371550,-0.92273620,4.85974400,0.00855069
-8.73999974,0.35371550,-1.43024100,5.36724900,0.00858145
-8.65999974,0.30757870,-1.96850400,5.92089000,0.00851993
-8.57999973,0.23068400,-2.52214600,6.47453200,0.00836614
-8.49999973,0.16916830,-3.01427100,6.96665800,0.00821235
-8.41999973,0.09227362,-3.44488200,7.38188900,0.00805856
-8.33999973,0.04613681,-3.73708200,7.67408900,0.00793553
-8.25999973,0.01537894,-3.90625000,7.82787800,0.00787402
-8.17999973,0.00000000,-3.90625000,7.82787800,0.00784326
-8.09999973,-0.01537894,-3.73708200,7.67408900,0.00784326
-8.01999973,0.00000000,-3.44488200,7.38188900,0.00787402
-7.93999973,0.00000000,-3.01427100,6.96665800,0.00787402
-7.85999972,0.00000000,-2.52214600,6.47453200,0.00790477
-7.77999972,0.00000000,-1.96850400,5.92089000,0.00790477
-7.69999972,0.00000000,-1.43024100,5.38262700,0.00787402
-7.61999972,0.00000000,-0.92273620,4.85974400,0.00787402
-7.53999972,0.00000000,-0.49212600,4.41375400,0.00784326
-7.45999972,0.00000000,-0.13841040,4.06003900,0.00784326
-7.37999972,0.00000000,0.10765260,3.81397600,0.00787402
-7.29999972,0.00000000,0.27682080,3.66018700,0.00793553
-7.21999972,0.00000000,0.33833660,3.59867100,0.00805856
-7.13999972,0.00000000,0.35371550,3.59867100,0.00821235
-7.05999971,0.00000000,0.30757870,3.64480800,0.00836614
-6.97999971,0.00000000,0.23068400,3.72170300,0.00851993
-6.89999971,0.00000000,0.16916830,3.78321800,0.00858145
-6.81999971,0.00000000,0.10765260,3.84473400,0.00855069
-6.73999971,0.00000000,0.04613681,3.89087100,0.00839690
-6.65999971,0.00000000,0.01537894,3.90625000,0.00805856
-6.57999971,0.00000000,-0.01537894,3.92162900,0.00756644
-6.49999971,0.00000000,-0.04613681,3.93700800,0.00688976
-6.41999971,0.00000000,-0.10765260,3.93700800,0.00602854
-6.33999970,0.00000000,-0.16916830,3.95238700,0.00501353
-6.25999970,0.00000000,-0.23068400,3.95238700,0.00396777
-6.17999970,0.00000000,-0.30757870,3.95238700,0.00286048
-6.09999970,0.00000000,-0.35371550,3.95238700,0.00184547
-6.01999970,0.00000000,-0.35371550,3.93700800,0.00098425
-5.93999970,0.00000000,-0.27682080,3.92162900,0.00036909
-5.85999970,0.00000000,-0.12303150,3.92162900,0.00003076
-5.77999970,0.00000000,0.15378940,3.92162900,0.00003076
-5.69999970,0.00000000,0.53826270,3.92162900,0.00036909
-5.61999969,0.00000000,1.01501000,3.93700800,0.00098425
-5.53999969,0.00000000,1.59940900,3.95238700,0.00184547
-5.45999969,0.00000000,2.21456700,3.95238700,0.00286048
-5.37999969,0.00000000,2.82972400,3.95238700,0.00396777
-5.29999969,0.00000000,3.36798700,3.95238700,0.00501353
-5.21999969,0.00000000,3.78321800,3.93700800,0.00599779
-5.13999969,0.00000000,3.99852300,3.92162900,0.00685901
-5.05999969,0.00000000,4.01390200,3.92162900,0.00756644
-4.97999969,0.00000000,3.76783900,3.92162900,0.00808932
-4.89999969,0.00000000,3.30647100,3.92162900,0.00848917
-4.81999968,0.00000000,2.61441900,3.93700800,0.00873524
-4.73999968,0.00000000,1.75319900,3.95238700,0.00891978
-4.65999968,0.00000000,0.78432570,3.95238700,0.00898130
-4.57999968,0.00000000,-0.24606300,3.95238700,0.00898130
-4.49999968,0.00000000,-1.24569400,3.95238700,0.00891978
-4.41999968,0.00000000,-2.16843000,3.93700800,0.00873524
-4.33999968,-0.01537894,-2.98351400,3.92162900,0.00848917
-4.25999968,0.00000000,-3.64480800,3.92162900,0.00808932
-4.17999968,0.01537894,-4.15231300,3.92162900,0.00756644
-4.09999967,0.04613681,-4.50602900,3.92162900,0.00685901
-4.01999967,0.09227362,-4.70595500,3.93700800,0.00599779
-3.93999967,0.16916830,-4.79822800,3.95238700,0.00501353
-3.85999967,0.23068400,-4.79822800,3.95238700,0.00396777
-3.77999967,0.30757870,-4.73671200,3.95238700,0.00286048
-3.69999967,0.35371550,-4.61368100,3.95238700,0.00184547
-3.61999967,0.33833660,-4.47527100,3.93700800,0.00098425
-3.53999967,0.27682080,-4.29072300,3.92162900,0.00036909
-3.45999967,0.10765260,-4.06003900,3.92162900,0.00003076
-3.37999966,-0.13841040,-3.76783900,3.92162900,0.00003076
-3.29999966,-0.49212600,-3.41412400,3.92162900,0.00036909
-3.21999966,-0.92273620,-2.99889300,3.93700800,0.00098425
-3.13999966,-1.43024100,-2.50676700,3.95238700,0.00184547
-3.05999966,-1.96850400,-1.98388300,3.95238700,0.00286048
-2.97999966,-2.52214600,-1.43024100,3.95238700,0.00396777
-2.89999966,-3.01427100,-0.92273620,3.95238700,0.00501353
-2.81999966,-3.44488200,-0.49212600,3.93700800,0.00599779
-2.73999966,-3.73708200,-0.16916830,3.92162900,0.00685901
-2.65999966,-3.90625000,-0.01537894,3.92162900,0.00756644
-2.57999965,-3.90625000,-0.03075787,3.92162900,0.00808932
-2.49999965,-3.73708200,-0.23068400,3.92162900,0.00848917
-2.41999965,-3.44488200,-0.58439960,3.93700800,0.00873524
-2.33999965,-3.01427100,-1.09190400,3.95238700,0.00891978
-2.25999965,-2.52214600,-1.67630400,3.95238700,0.00898130
-2.17999965,-1.96850400,-2.27608300,3.95238700,0.00898130
-2.09999965,-1.43024100,-2.86048200,3.95238700,0.00891978
-2.01999965,-0.92273620,-3.35260800,3.93700800,0.00873524
-1.93999965,-0.49212600,-3.70632400,3.92162900,0.00848917
-1.85999964,-0.13841040,-3.89087100,3.92162900,0.00808932
-1.77999964,0.10765260,-3.90625000,3.92162900,0.00756644
-1.69999964,0.27682080,-3.75246000,3.92162900,0.00685901
-1.61999964,0.33833660,-3.44488200,3.93700800,0.00599779
-1.53999964,0.35371550,-3.02965000,3.95238700,0.00501353
-1.45999964,0.30757870,-2.52214600,3.95238700,0.00396777
-1.37999964,0.23068400,-1.96850400,3.95238700,0.00286048
-1.29999964,0.16916830,-1.43024100,4.02928100,0.00184547
-1.21999964,0.09227362,-0.92273620,4.19845000,0.00098425
-1.13999963,0.04613681,-0.49212600,4.30610200,0.00036909
-1.05999963,0.01537894,-0.13841040,4.16769200,0.00003076
-0.97999963,0.00000000,0.10765260,3.52177600,0.00003076
-0.89999963,-0.01537894,0.27682080,2.19918800,0.00036909
-0.81999963,0.00000000,0.33833660,0.13841040,0.00098425
-0.73999963,0.00000000,0.35371550,-2.55290300,0.00184547
-0.65999963,0.00000000,0.30757870,-5.52103800,0.00286048
-0.57999963,0.00000000,0.23068400,-8.21235200,0.00396777
-0.49999963,0.00000000,0.15378940,-9.75024500,0.00501353
-0.41999963,-0.01537894,0.09227362,-9.24274100,0.00599779
-0.33999962,-0.01537894,0.03075787,-6.12081600,0.00685901
-0.25999962,-0.01537894,0.00000000,-0.15378940,0.00756644
-0.17999962,0.01537894,0.00000000,8.67371900,0.00808932
-0.09999962,0.09227362,0.03075787,20.06951000,0.00848917
-0.01999962,0.18454720,0.09227362,33.54146000,0.00873524
0.06000038,0.32295760,0.15378940,48.52054000,0.00891978
0.14000038,0.47674700,0.23068400,64.46850000,0.00898130
0.22000038,0.61515740,0.30757870,80.95472000,0.00898130
0.30000038,0.64591530,0.35371550,97.81003000,0.00891978
0.38000039,0.53826270,0.33833660,115.04980000,0.00873524
0.46000039,0.32295760,0.27682080,132.79710000,0.00848917
0.54000039,0.09227362,0.10765260,151.25180000,0.00808932
0.62000039,-0.04613681,-0.13841040,170.62930000,0.00756644
0.70000039,0.01537894,-0.49212600,190.94490000,0.00685901
0.78000039,0.33833660,-0.92273620,212.06020000,0.00599779
0.86000039,0.87659940,-1.43024100,233.48300000,0.00501353
0.94000039,1.49175700,-1.96850400,254.45990000,0.00396777
1.02000039,1.95312500,-2.52214600,273.91420000,0.00286048
1.10000039,1.75319900,-3.02965000,290.58500000,0.00184547
1.18000040,0.43061020,-3.46026100,303.19570000,0.00095349
1.26000040,-2.09153500,-3.76783900,310.54680000,0.00033834
1.34000040,-5.70558500,-3.92162900,311.76180000,0.00003076
1.42000040,-10.13472000,-3.87549200,306.28690000,0.00009227
1.50000040,-15.04060000,-3.61405000,294.15290000,0.00055364
1.58000040,-20.08489000,-3.15268200,275.82120000,0.00138410
1.66000040,-25.15994000,-2.53752400,252.30680000,0.00249139
1.74000040,-30.32726000,-1.81471400,224.94770000,0.00381398
1.82000040,-36.01747000,-1.06114600,195.35860000,0.00516732
1.90000041,-43.15329000,-0.46136810,165.16980000,0.00630536
1.98000041,-52.74975000,-0.10765260,135.93440000,0.00698204
2.06000041,-65.32972000,0.00000000,108.94440000,0.00735113
2.14000041,-81.12389000,0.00000000,85.09165000,0.00765871
2.22000041,-100.04000000,0.03075787,64.88373000,0.00815084
2.30000041,-121.67810000,0.23068400,48.36675000,0.00913509
2.38000041,-145.34630000,0.70743110,35.23314000,0.01073450
2.46000041,-170.30640000,1.41486200,24.88312000,0.01291831
2.54000041,-195.80460000,2.19918800,16.62463000,0.01528666
2.62000042,-221.28750000,2.72207200,9.65797200,0.01716289
2.70000042,-246.64740000,2.33759800,3.32185000,0.01728592
2.78000042,-271.91500000,0.43061020,-2.66055600,0.01442544
2.86000042,-296.90570000,-3.19881900,-8.30462600,0.00812008
2.94000042,-321.40440000,-8.53530900,-13.42581000,-0.00169168
3.02000042,-345.18020000,-15.31742000,-17.71653000,-0.01473302
3.10000042,-367.89490000,-23.19143000,-20.85384000,-0.03029651
3.18000042,-389.24090000,-31.74212000,-22.62241000,-0.04770546
3.26000042,-408.91050000,-40.70804000,-22.96075000,-0.06628322
3.34000042,-426.59630000,-49.99692000,-22.02264000,-0.08578371
3.42000043,-442.14440000,-59.82406000,-20.25406000,-0.10623770
3.50000043,-455.60100000,-70.97379000,-18.20866000,-0.12866020
3.58000043,-467.05830000,-84.26119000,-16.16326000,-0.15415850
3.66000043,-476.45480000,-100.19380000,-14.25627000,-0.18344000
3.74000043,-483.65210000,-118.98680000,-12.54921000,-0.21696600
3.82000043,-488.49650000,-140.56350000,-11.01132000,-0.25473670
3.90000043,-490.80340000,-164.60080000,-9.56569900,-0.29635210
3.98000043,-490.48040000,-190.45270000,-8.10469900,-0.34085880
4.06000043,-487.46610000,-217.36590000,-6.53604800,-0.38705710
4.14000044,-481.86820000,-244.54050000,-4.84436500,-0.43347070
4.22000044,-473.82500000,-271.23830000,-3.06040800,-0.47853100
4.30000044,-463.76720000,-297.09030000,-1.30720900,-0.52106920
4.38000044,-452.20220000,-321.83500000,0.36909450,-0.56000860
4.46000044,-439.62230000,-345.08800000,1.92236700,-0.59430370
4.54000044,-426.42710000,-366.57230000,3.30647100,-0.62318530
4.62000044,-412.90910000,-385.99590000,4.49065000,-0.64616140
4.70000044,-399.17570000,-403.15880000,5.44414400,-0.66304750
4.78000044,-385.25770000,-417.92260000,6.19771100,-0.67396650
4.86000045,-371.00150000,-430.17960000,6.75135300,-0.67922610
4.94000045,-356.25310000,-439.88370000,7.15120500,-0.67931840
5.02000045,-340.62810000,-447.05030000,7.41264700,-0.67485850
5.10000045,-323.98800000,-451.83310000,7.61257400,-0.66643080
5.18000045,-306.57910000,-454.38600000,7.75098400,-0.65458910
5.26000045,-288.83180000,-454.75510000,7.84325700,-0.63967150
5.34000045,-271.31520000,-452.87890000,7.85863600,-0.62186270
5.42000045,-254.53680000,-448.68050000,7.79712100,-0.60122420
5.50000045,-238.88100000,-442.09830000,7.62795300,-0.57772520
5.58000045,-224.57860000,-433.10160000,7.35113100,-0.55139640
5.66000046,-211.52190000,-421.75200000,6.95127900,-0.52239170
5.74000046,-199.46480000,-408.21850000,6.47453200,-0.49098790
5.82000046,-187.65380000,-392.76260000,5.92089000,-0.45761560
5.90000046,-175.42750000,-375.81510000,5.38262700,-0.42292080
5.98000046,-162.66300000,-358.03700000,4.85974400,-0.38791830
6.06000046,-149.43710000,-340.02830000,4.41375400,-0.35368480
6.14000046,-136.05740000,-322.35790000,4.06003900,-0.32123520
6.22000046,-122.92380000,-305.44110000,3.81397600,-0.29136930
6.30000046,-110.43610000,-289.49310000,3.66018700,-0.26451770
6.38000047,-98.85580000,-274.51400000,3.59867100,-0.24074190
6.46000047,-88.32123000,-260.33460000,3.59867100,-0.21973430
6.54000047,-78.75553000,-246.66280000,3.64480800,-0.20097190
6.62000047,-69.75885000,-232.96010000,3.72170300,-0.18334770
6.70000047,-60.86983000,-218.81150000,3.78321800,-0.16606180
6.78000047,-52.05770000,-204.30920000,3.82935500,-0.14899110
6.86000047,-43.44550000,-189.72990000,3.87549200,-0.13244340
6.94000047,-35.24852000,-175.50440000,3.90625000,-0.11694140
7.02000047,-27.71284000,-162.07860000,3.93700800,-0.10319270
7.10000048,-21.06914000,-149.85240000,3.98314500,-0.09175074
7.18000048,-15.47121000,-139.02560000,4.04466000,-0.08289247
7.26000048,-10.94980000,-129.58290000,4.10617600,-0.07661787
7.34000048,-7.42802600,-121.32440000,4.18307100,-0.07252707
7.42000048,-4.55216500,-113.60420000,4.25996500,-0.06963582
7.50000048,-2.04539800,-105.85320000,4.29072300,-0.06695990
7.58000048,0.16916830,-97.96382000,4.27534400,-0.06400713
7.66000048,2.03002000,-89.99754000,4.19845000,-0.06065453
7.74000048,3.42950300,-82.20041000,4.02928100,-0.05687131
7.82000048,4.24458600,-74.84928000,3.78321800,-0.05293430
7.90000049,4.33686000,-68.25172000,3.44488200,-0.04905881
7.98000049,3.66018700,-62.59227000,3.01427100,-0.04555241
8.06000049,2.24532500,-57.91707000,2.50676700,-0.04256890
8.14000049,0.21530510,-54.11848000,1.98388300,-0.04016978
8.22000049,-2.16843000,-50.76587000,1.43024100,-0.03810900
8.30000049,-4.61368100,-47.42864000,0.92273620,-0.03620202
8.38000049,-6.98203700,-43.99914000,0.49212600,-0.03444882
8.46000049,-9.11970900,-40.46198000,0.18454720,-0.03294168
8.54000049,-10.96518000,-36.97096000,0.01537894,-0.03177289
8.62000050,-12.48770000,-33.71063000,0.01537894,-0.03109621
8.70000050,-13.71801000,-30.88090000,0.18454720,-0.03097318
8.78000050,-14.67150000,-28.58944000,0.49212600,-0.03140379
8.86000050,-15.44045000,-26.88238000,0.92273620,-0.03238804
8.94000050,-16.07099000,-25.66744000,1.43024100,-0.03374139
9.02000050,-16.62463000,-24.63705000,1.98388300,-0.03524852
9.10000050,-17.14751000,-23.43750000,2.50676700,-0.03663263
9.18000050,-17.71653000,-21.86885000,3.01427100,-0.03777067
9.26000050,-18.37783000,-19.79269000,3.44488200,-0.03860113
9.34000051,-19.17753000,-17.19365000,3.78321800,-0.03909326
9.42000051,-20.08489000,-14.07173000,4.02928100,-0.03927780
9.50000051,-21.09990000,-10.56533000,4.19845000,-0.03915477
9.58000051,-22.17643000,-6.76673200,4.27534400,-0.03878568
9.66000051,-23.26833000,-2.82972400,4.29072300,-0.03826280
9.74000051,-24.31410000,1.12266200,4.25996500,-0.03761688
9.82000051,-25.26759000,4.99815400,4.18307100,-0.03678642
9.90000051,-26.08268000,8.76599300,4.10617600,-0.03580217
9.98000051,-26.72859000,12.30315000,4.02928100,-0.03466412
10.06000051,-27.15920000,15.53273000,3.96776600,-0.03340305
10.14000052,-27.40526000,18.36245000,3.92162900,-0.03208046
10.22000052,-27.45140000,20.74619000,3.92162900,-0.03069636
10.30000052,-27.32837000,22.68393000,3.96776600,-0.02928150
10.38000052,-27.02079000,24.16031000,4.02928100,-0.02786663
10.46000052,-26.57480000,25.22145000,4.10617600,-0.02645177
10.54000052,-25.97502000,25.89813000,4.18307100,-0.02500615
10.62000052,-25.23683000,26.23647000,4.25996500,-0.02349902
10.70000052,-24.29872000,26.26722000,4.29072300,-0.02189961
10.78000052,-23.19143000,25.94427000,4.27534400,-0.02020792
10.86000053,-21.88423000,25.28297000,4.19845000,-0.01839321
10.94000053,-20.40785000,24.22182000,4.02928100,-0.01657849
11.02000053,-18.79306000,22.74545000,3.78321800,-0.01479454
11.10000053,-17.05524000,20.88459000,3.44488200,-0.01307210
11.18000053,-15.22515000,18.65465000,3.01427100,-0.01147269
11.26000053,-13.33354000,16.08637000,2.50676700,-0.00999631
11.34000053,-11.41117000,13.27202000,1.98388300,-0.00858145
11.42000053,-9.42728800,10.27313000,1.43024100,-0.00722810
11.50000053,-7.39726800,7.16658400,0.92273620,-0.00581324
11.58000053,-5.29035400,3.98314500,0.49212600,-0.00427534
11.66000054,-3.15268200,0.79970470,0.16916830,-0.00261442
