Time,Channel A,Channel B,Channel C,Channel D
(ns),(mV),(mV),(mV),(V)

-15.21290383,0.13841040,-3.79859700,3.78321800,-0.00024606
-15.13290382,0.46136810,-3.49101900,3.44488200,-0.00061516
-15.05290382,0.83046260,-3.10654500,3.01427100,-0.00086122
-14.97290382,1.27645200,-2.67593500,2.50676700,-0.00101501
-14.89290382,1.73782000,-2.21456700,1.98388300,-0.00107653
-14.81290382,2.21456700,-1.73782000,1.43024100,-0.00107653
-14.73290382,2.67593500,-1.26107300,0.92273620,-0.00101501
-14.65290382,3.10654500,-0.83046260,0.49212600,-0.00086122
-14.57290382,3.47564000,-0.44598910,0.18454720,-0.00061516
-14.49290382,3.78321800,-0.12303150,0.01537894,-0.00024606
-14.41290381,4.04466000,0.10765260,0.01537894,0.00027682
-14.33290381,4.22920700,0.26144190,0.18454720,0.00092274
-14.25290381,4.36761800,0.33833660,0.49212600,0.00166093
-14.17290381,4.44451300,0.33833660,0.92273620,0.00255290
-14.09290381,4.49065000,0.30757870,1.43024100,0.00347564
-14.01290381,4.49065000,0.23068400,1.98388300,0.00442913
-13.93290381,4.44451300,0.16916830,2.50676700,0.00535187
-13.85290381,4.36761800,0.09227362,3.01427100,0.00621309
-13.77290381,4.22920700,0.04613681,3.44488200,0.00698204
-13.69290380,4.04466000,0.01537894,3.78321800,0.00759720
-13.61290380,3.78321800,0.00000000,4.02928100,0.00805856
-13.53290380,3.47564000,-0.01537894,4.19845000,0.00836614
-13.45290380,3.10654500,0.00000000,4.27534400,0.00855069
-13.37290380,2.67593500,0.00000000,4.29072300,0.00858145
-13.29290380,2.21456700,0.00000000,4.25996500,0.00851993
-13.21290380,1.73782000,0.00000000,4.18307100,0.00836614
-13.13290380,1.26107300,0.00000000,4.10617600,0.00821235
-13.05290380,0.83046260,0.00000000,4.02928100,0.00805856
-12.97290380,0.43061020,-0.01537894,3.96776600,0.00793553
-12.89290379,0.12303150,0.00000000,3.93700800,0.00787402
-12.81290379,-0.09227362,0.01537894,3.92162900,0.00784326
-12.73290379,-0.21530510,0.04613681,3.92162900,0.00784326
-12.65290379,-0.24606300,0.09227362,3.93700800,0.00787402
-12.57290379,-0.18454720,0.16916830,3.93700800,0.00787402
-12.49290379,-0.06151574,0.23068400,3.95238700,0.00790477
-12.41290379,0.06151574,0.30757870,3.95238700,0.00790477
-12.33290379,0.18454720,0.33833660,3.95238700,0.00790477
-12.25290379,0.24606300,0.33833660,3.93700800,0.00787402
-12.17290378,0.23068400,0.26144190,3.92162900,0.00784326
-12.09290378,0.10765260,0.10765260,3.92162900,0.00784326
-12.01290378,-0.13841040,-0.12303150,3.92162900,0.00784326
-11.93290378,-0.47674700,-0.44598910,3.92162900,0.00784326
-11.85290378,-0.92273620,-0.83046260,3.93700800,0.00787402
-11.77290378,-1.43024100,-1.26107300,3.95238700,0.00790477
-11.69290378,-1.96850400,-1.73782000,3.95238700,0.00790477
-11.61290378,-2.52214600,-2.21456700,3.95238700,0.00790477
-11.53290378,-3.01427100,-2.67593500,3.93700800,0.00787402
-11.45290377,-3.42950300,-3.10654500,3.93700800,0.00787402
-11.37290377,-3.73708200,-3.47564000,3.92162900,0.00784326
-11.29290377,-3.89087100,-3.78321800,3.92162900,0.00784326
-11.21290377,-3.90625000,-4.04466000,3.93700800,0.00787402
-11.13290377,-3.78321800,-4.22920700,3.96776600,0.00793553
-11.05290377,-3.53715500,-4.36761800,4.02928100,0.00805856
-10.97290377,-3.18344000,-4.44451300,4.10617600,0.00821235
-10.89290377,-2.75283000,-4.49065000,4.18307100,0.00836614
-10.81290377,-2.27608300,-4.49065000,4.25996500,0.00851993
-10.73290377,-1.78395700,-4.44451300,4.29072300,0.00858145
-10.65290376,-1.26107300,-4.36761800,4.27534400,0.00855069
-10.57290376,-0.75356790,-4.22920700,4.19845000,0.00839690
-10.49290376,-0.24606300,-4.04466000,4.02928100,0.00805856
-10.41290376,0.24606300,-3.78321800,3.78321800,0.00756644
-10.33290376,0.75356790,-3.47564000,3.44488200,0.00688976
-10.25290376,1.26107300,-3.10654500,3.01427100,0.00602854
-10.17290376,1.78395700,-2.67593500,2.50676700,0.00501353
-10.09290376,2.27608300,-2.21456700,1.98388300,0.00396777
-10.01290376,2.75283000,-1.73782000,1.43024100,0.00286048
-9.93290375,3.18344000,-1.27645200,0.92273620,0.00184547
-9.85290375,3.53715500,-0.83046260,0.49212600,0.00098425
-9.77290375,3.78321800,-0.46136810,0.18454720,0.00036909
-9.69290375,3.90625000,-0.13841040,0.01537894,0.00003076
-9.61290375,3.89087100,0.12303150,0.01537894,0.00003076
-9.53290375,3.73708200,0.30757870,0.18454720,0.00036909
-9.45290375,3.42950300,0.43061020,0.49212600,0.00098425
-9.37290375,3.01427100,0.50750490,0.92273620,0.00184547
-9.29290375,2.52214600,0.53826270,1.43024100,0.00286048
-9.21290374,1.96850400,0.53826270,1.98388300,0.00396777
-9.13290374,1.43024100,0.50750490,2.50676700,0.00501353
-9.05290374,0.92273620,0.43061020,3.01427100,0.00602854
-8.97290374,0.49212600,0.30757870,3.44488200,0.00688976
-8.89290374,0.13841040,0.12303150,3.78321800,0.00756644
-8.81290374,-0.10765260,-0.13841040,4.02928100,0.00805856
-8.73290374,-0.27682080,-0.46136810,4.19845000,0.00839690
-8.65290374,-0.33833660,-0.83046260,4.27534400,0.00855069
-8.57290374,-0.35371550,-1.27645200,4.29072300,0.00858145
-8.49290374,-0.30757870,-1.73782000,4.25996500,0.00851993
-8.41290373,-0.23068400,-2.21456700,4.18307100,0.00836614
-8.33290373,-0.16916830,-2.67593500,4.10617600,0.00821235
-8.25290373,-0.09227362,-3.10654500,4.02928100,0.00805856
-8.17290373,-0.04613681,-3.49101900,3.96776600,0.00793553
-8.09290373,-0.01537894,-3.79859700,3.93700800,0.00787402
-8.01290373,0.00000000,-4.02928100,3.92162900,0.00784326
-7.93290373,0.01537894,-4.18307100,3.92162900,0.00784326
-7.85290373,0.00000000,-4.27534400,3.93700800,0.00787402
-7.77290373,0.00000000,-4.29072300,3.93700800,0.00787402
-7.69290372,0.00000000,-4.25996500,3.95238700,0.00790477
-7.61290372,0.00000000,-4.18307100,3.95238700,0.00790477
-7.53290372,0.00000000,-4.10617600,3.95238700,0.00790477
-7.45290372,0.00000000,-4.02928100,3.93700800,0.00787402
-7.37290372,0.00000000,-3.96776600,3.92162900,0.00784326
-7.29290372,0.00000000,-3.93700800,3.92162900,0.00784326
-7.21290372,0.00000000,-3.92162900,3.92162900,0.00784326
-7.13290372,0.00000000,-3.92162900,3.92162900,0.00784326
-7.05290372,0.00000000,-3.93700800,3.93700800,0.00787402
-6.97290372,0.00000000,-3.93700800,3.95238700,0.00790477
-6.89290371,0.00000000,-3.95238700,3.95238700,0.00790477
-6.81290371,0.00000000,-3.95238700,3.95238700,0.00790477
-6.73290371,0.00000000,-3.95238700,3.95238700,0.00790477
-6.65290371,0.00000000,-3.93700800,3.93700800,0.00787402
-6.57290371,0.00000000,-3.93700800,3.92162900,0.00784326
-6.49290371,0.00000000,-3.92162900,3.92162900,0.00784326
-6.41290371,0.00000000,-3.90625000,3.92162900,0.00784326
-6.33290371,0.00000000,-3.89087100,3.92162900,0.00784326
-6.25290371,0.00000000,-3.84473400,3.93700800,0.00787402
-6.17290370,0.00000000,-3.78321800,3.95238700,0.00790477
-6.09290370,0.00000000,-3.72170300,3.95238700,0.00790477
-6.01290370,0.00000000,-3.64480800,3.95238700,0.00790477
-5.93290370,0.00000000,-3.59867100,3.95238700,0.00790477
-5.85290370,0.00000000,-3.61405000,3.93700800,0.00787402
-5.77290370,0.00000000,-3.67556500,3.92162900,0.00784326
-5.69290370,0.00000000,-3.81397600,3.92162900,0.00784326
-5.61290370,0.00000000,-4.04466000,3.92162900,0.00784326
-5.53290370,0.00000000,-4.33686000,3.92162900,0.00784326
-5.45290369,0.00000000,-4.67519700,3.93700800,0.00787402
-5.37290369,0.00000000,-5.04429100,3.95238700,0.00790477
-5.29290369,0.00000000,-5.45952300,3.95238700,0.00790477
-5.21290369,0.00000000,-5.85937500,3.95238700,0.00790477
-5.13290369,0.00000000,-6.27460600,3.95238700,0.00787402
-5.05290369,0.00000000,-6.68983700,3.93700800,0.00787402
-4.97290369,0.00000000,-7.13582600,3.92162900,0.00784326
-4.89290369,0.00000000,-7.59719500,3.92162900,0.00784326
-4.81290369,0.00000000,-8.10469900,3.92162900,0.00787402
-4.73290369,0.00000000,-8.64296200,3.92162900,0.00793553
-4.65290368,0.00000000,-9.22736200,3.93700800,0.00805856
-4.57290368,0.00000000,-9.82714000,3.95238700,0.00821235
-4.49290368,0.00000000,-10.42692000,3.95238700,0.00836614
-4.41290368,0.00000000,-10.96518000,3.95238700,0.00851993
-4.33290368,0.00000000,-11.41117000,3.95238700,0.00858145
-4.25290368,0.00000000,-11.73413000,3.93700800,0.00855069
-4.17290368,0.00000000,-11.88792000,3.92162900,0.00839690
-4.09290368,0.00000000,-11.85716000,3.92162900,0.00805856
-4.01290368,0.00000000,-11.62648000,3.92162900,0.00756644
-3.93290367,0.00000000,-11.19587000,3.92162900,0.00688976
-3.85290367,0.00000000,-10.56533000,3.93700800,0.00602854
-3.77290367,0.00000000,-9.79638200,3.95238700,0.00501353
-3.69290367,0.00000000,-8.91978400,3.95238700,0.00396777
-3.61290367,0.00000000,-7.96628900,3.95238700,0.00286048
-3.53290367,0.00000000,-6.99741600,3.95238700,0.00184547
-3.45290367,0.00000000,-6.02854300,3.93700800,0.00098425
-3.37290367,0.00000000,-5.13656500,3.92162900,0.00033834
-3.29290367,0.00000000,-4.30610200,3.92162900,0.00003076
-3.21290366,0.00000000,-3.56791300,3.92162900,0.00006152
-3.13290366,0.00000000,-2.90661900,3.92162900,0.00046137
-3.05290366,0.00000000,-2.33759800,3.93700800,0.00116880
-2.97290366,0.00000000,-1.83009300,3.95238700,0.00218381
-2.89290366,0.00000000,-1.36872500,3.95238700,0.00335261
-2.81290366,0.00000000,-0.95349410,3.95238700,0.00455217
-2.73290366,0.00000000,-0.59977850,3.95238700,0.00572097
-2.65290366,0.00000000,-0.30757870,3.93700800,0.00670522
-2.57290366,0.01537894,-0.09227362,3.93700800,0.00744341
-2.49290366,0.00000000,0.00000000,3.92162900,0.00781250
-2.41290365,-0.01537894,-0.03075787,3.90625000,0.00778174
-2.33290365,-0.04613681,-0.19992620,3.89087100,0.00732037
-2.25290365,-0.09227362,-0.50750490,3.84473400,0.00652067
-2.17290365,-0.16916830,-0.92273620,3.78321800,0.00538263
-2.09290365,-0.23068400,-1.43024100,3.72170300,0.00409080
-2.01290365,-0.30757870,-1.98388300,3.64480800,0.00273745
-1.93290365,-0.33833660,-2.50676700,3.61405000,0.00147638
-1.85290365,-0.33833660,-3.01427100,3.64480800,0.00049213
-1.77290365,-0.26144190,-3.44488200,3.73708200,-0.00009227
-1.69290364,-0.10765260,-3.78321800,3.86011300,-0.00015379
-1.61290364,0.12303150,-4.02928100,3.98314500,0.00030758
-1.53290364,0.44598910,-4.19845000,4.07541800,0.00132259
-1.45290364,0.83046260,-4.27534400,4.10617600,0.00282972
-1.37290364,1.26107300,-4.29072300,4.07541800,0.00470596
-1.29290364,1.73782000,-4.25996500,4.02928100,0.00682825
-1.21290364,2.21456700,-4.18307100,4.02928100,0.00898130
-1.13290364,2.67593500,-4.10617600,4.33686000,0.01107283
-1.05290364,3.09116600,-4.04466000,5.09042800,0.01288755
-0.97290363,3.46026100,-3.98314500,6.18233200,0.01436393
-0.89290363,3.78321800,-3.93700800,7.35113100,0.01534818
-0.81290363,4.04466000,-3.90625000,8.24311000,0.01590182
-0.73290363,4.27534400,-3.87549200,8.55068800,0.01596334
-0.65290363,4.45989200,-3.82935500,8.13545700,0.01562500
-0.57290363,4.61368100,-3.78321800,7.04355200,0.01494833
-0.49290363,4.73671200,-3.72170300,5.69020700,0.01402559
-0.41290363,4.79822800,-3.64480800,4.78284900,0.01294907
-0.33290363,4.78284900,-3.59867100,5.35187000,0.01178027
-0.25290363,4.64443900,-3.59867100,8.59682500,0.01061147
-0.17290362,4.41375400,-3.66018700,15.65576000,0.00944267
-0.09290362,4.10617600,-3.81397600,27.43602000,0.00836614
-0.01290362,3.73708200,-4.06003900,44.50664000,0.00732037
0.06709638,3.36798700,-4.41375400,66.88300000,0.00633612
0.14709638,3.02965000,-4.85974400,93.99606000,0.00532111
0.22709638,2.70669300,-5.38262700,124.69240000,0.00433686
0.30709638,2.36835600,-5.92089000,157.29580000,0.00335261
0.38709638,1.95312500,-6.47453200,189.72990000,0.00239911
0.46709638,1.26107300,-6.96665800,219.78040000,0.00153789
0.54709639,0.10765260,-7.39726800,245.30940000,0.00079970
0.62709639,-1.41486200,-7.68946800,264.45620000,0.00027682
0.70709639,-3.09116600,-7.84325700,275.89810000,0.00003076
0.78709639,-4.69057600,-7.81250000,278.95850000,0.00006152
0.86709639,-5.98240600,-7.58181600,273.65280000,0.00039985
0.94709639,-6.78211100,-7.18196300,260.70370000,0.00101501
1.02709639,-7.15120500,-6.64370100,241.43390000,0.00184547
1.10709639,-7.33575200,-5.99778500,217.55040000,0.00286048
1.18709639,-7.84325700,-5.32111200,190.96030000,0.00396777
1.26709639,-9.61183500,-4.70595500,163.58570000,0.00498278
1.34709640,-13.56422000,-4.27534400,137.08780000,0.00587475
1.42709640,-20.17716000,-4.01390200,112.83530000,0.00664370
1.50709640,-29.58907000,-3.92162900,91.65846000,0.00741265
1.58709640,-41.64616000,-3.95238700,73.95731000,0.00830463
1.66709640,-55.93319000,-4.02928100,59.65489000,0.00944267
1.74709640,-71.89652000,-4.12155500,48.33599000,0.01082677
1.82709640,-88.95177000,-4.18307100,39.35470000,0.01248770
1.90709640,-106.66830000,-4.27534400,32.00356000,0.01421014
1.98709640,-124.80010000,-4.49065000,25.57517000,0.01568652
2.06709641,-143.68540000,-5.10580700,19.56201000,0.01630167
2.14709641,-163.75490000,-6.38225800,13.71801000,0.01553273
2.22709641,-185.13160000,-8.24311000,7.99704600,0.01331816
2.30709641,-207.84630000,-10.54995000,2.55290300,0.00987328
2.38709641,-231.71440000,-12.99520000,-2.38373500,0.00565945
2.46709641,-256.41300000,-15.31742000,-6.48991100,0.00113804
2.54709641,-281.43450000,-17.31668000,-9.59645700,-0.00332185
2.62709641,-306.24080000,-18.97761000,-11.59572000,-0.00762795
2.70709641,-330.26260000,-20.53088000,-12.54921000,-0.01202633
2.78709642,-353.02350000,-22.46863000,-12.82603000,-0.01725517
2.86709642,-374.35410000,-25.77510000,-12.81065000,-0.02479085
2.94709642,-394.17750000,-31.43455000,-12.65686000,-0.03617126
3.02709642,-412.23240000,-40.01599000,-12.39542000,-0.05231914
3.10709642,-428.22650000,-51.78088000,-12.02633000,-0.07366510
3.18709642,-441.92910000,-66.62155000,-11.45731000,-0.10014760
3.26709642,-453.07880000,-84.16891000,-10.58071000,-0.13124390
3.34709642,-461.53720000,-103.80780000,-9.36577200,-0.16590800
3.42709642,-467.22740000,-124.83080000,-7.75098400,-0.20300200
3.50709642,-470.19560000,-146.59200000,-5.81323800,-0.24135700
3.58709643,-470.61080000,-168.61470000,-3.70632400,-0.27992740
3.66709643,-468.87300000,-190.83720000,-1.61478800,-0.31825170
3.74709643,-465.39740000,-213.38270000,0.33833660,-0.35617620
3.82709643,-460.53760000,-236.18970000,2.03002000,-0.39336250
3.90709643,-454.49370000,-259.15050000,3.38336600,-0.42953370
3.98709643,-447.38860000,-282.11120000,4.36761800,-0.46441310
4.06709643,-439.25320000,-304.77980000,4.95201700,-0.49778540
4.14709643,-429.97970000,-326.86390000,5.19808000,-0.52922000
4.22709643,-419.46050000,-347.94840000,5.16732200,-0.55834770
4.30709644,-407.60330000,-367.64880000,4.93663800,-0.58470720
4.38709644,-394.23900000,-385.56530000,4.59830200,-0.60771410
4.46709644,-379.41370000,-401.52860000,4.24458600,-0.62703000
4.54709644,-363.46580000,-415.40050000,3.96776600,-0.64222440
4.62709644,-346.84110000,-426.91930000,3.82935500,-0.65277430
4.70709644,-330.00120000,-435.86980000,3.84473400,-0.65824930
4.78709644,-313.37660000,-442.03670000,4.02928100,-0.65831080
4.86709644,-297.29020000,-445.31250000,4.38299700,-0.65280510
4.94709644,-281.86510000,-445.65080000,4.82898600,-0.64191680
5.02709645,-267.05520000,-443.11330000,5.36724900,-0.62598430
5.10709645,-252.66050000,-437.86910000,5.92089000,-0.60565330
5.18709645,-238.12740000,-430.17960000,6.47453200,-0.58169290
5.26709645,-223.04070000,-420.44470000,6.96665800,-0.55505660
5.34709645,-207.47720000,-409.15660000,7.38188900,-0.52685160
5.42709645,-191.69840000,-396.71500000,7.67408900,-0.49797000
5.50709645,-176.18110000,-383.42760000,7.82787800,-0.46918060
5.58709645,-161.38660000,-369.52510000,7.82787800,-0.44100640
5.66709645,-147.71470000,-355.08430000,7.67408900,-0.41363190
5.74709645,-135.39620000,-340.13600000,7.38188900,-0.38705710
5.82709646,-124.47710000,-324.58780000,6.96665800,-0.36112820
5.90709646,-114.71150000,-308.40920000,6.47453200,-0.33550690
5.98709646,-105.48410000,-291.44620000,5.92089000,-0.30973180
6.06709646,-96.21062000,-273.69890000,5.38262700,-0.28355680
6.14709646,-86.72182000,-255.55180000,4.85974400,-0.25735110
6.22709646,-77.07922000,-237.51230000,4.41375400,-0.23176060
6.30709646,-67.46739000,-220.10330000,4.06003900,-0.20749260
6.38709646,-58.17851000,-203.84780000,3.81397600,-0.18534690
6.46709646,-49.52017000,-189.03790000,3.66018700,-0.16584650
6.54709647,-41.72306000,-175.82740000,3.59867100,-0.14920640
6.62709647,-34.87943000,-164.10860000,3.59867100,-0.13533460
6.70709647,-28.95854000,-153.55870000,3.64480800,-0.12380040
6.78709647,-23.62205000,-143.51620000,3.72170300,-0.11355810
6.86709647,-18.59313000,-133.41230000,3.78321800,-0.10365400
6.94709647,-13.85642000,-123.16990000,3.84473400,-0.09384228
7.02709647,-9.47342500,-112.88140000,3.89087100,-0.08415354
7.10709647,-5.59793300,-102.85430000,3.90625000,-0.07492618
7.18709647,-2.42987200,-93.47318000,3.92162900,-0.06656004
7.26709648,-0.10765260,-85.04552000,3.93700800,-0.05945497
7.34709648,1.30720900,-77.80203000,3.93700800,-0.05388780
7.42709648,1.81471400,-71.78887000,3.95238700,-0.04998155
7.50709648,1.55327200,-66.83685000,3.95238700,-0.04749016
7.58709648,0.81508360,-62.45386000,3.95238700,-0.04585999
7.66709648,-0.13841040,-58.16314000,3.95238700,-0.04441437
7.74709648,-1.18417800,-53.79552000,3.93700800,-0.04296875
7.82709648,-2.24532500,-49.41252000,3.92162900,-0.04146161
7.90709648,-3.35260800,-45.15256000,3.92162900,-0.03995448
7.98709648,-4.52140800,-41.24631000,3.92162900,-0.03857037
8.06709649,-5.81323800,-37.92445000,3.92162900,-0.03749385
8.14709649,-7.25885800,-35.31004000,3.93700800,-0.03687869
8.22709649,-8.88902600,-33.43381000,3.95238700,-0.03675566
8.30709649,-10.67298000,-32.18811000,3.95238700,-0.03709400
8.38709649,-12.50307000,-31.21924000,3.95238700,-0.03761688
8.46709649,-14.30241000,-30.14272000,3.93700800,-0.03813976
8.54709649,-16.02485000,-28.75861000,3.93700800,-0.03857037
8.62709649,-17.60888000,-26.95927000,3.92162900,-0.03887795
8.70709649,-18.99298000,-24.76009000,3.92162900,-0.03912402
8.78709650,-20.16179000,-22.23794000,3.93700800,-0.03933932
8.86709650,-21.08452000,-19.50049000,3.96776600,-0.03961614
8.94709650,-21.76119000,-16.68615000,4.02928100,-0.03998524
9.02709650,-22.20718000,-13.90256000,4.10617600,-0.04044661
9.10709650,-22.48400000,-11.21124000,4.18307100,-0.04093873
9.18709650,-22.62241000,-8.55068800,4.25996500,-0.04133858
9.26709650,-22.69931000,-5.84399600,4.29072300,-0.04152313
9.34709650,-22.80696000,-3.09116600,4.27534400,-0.04133858
9.42709650,-22.99151000,-0.29219980,4.19845000,-0.04081570
9.50709651,-23.31447000,2.52214600,4.02928100,-0.03986220
9.58709651,-23.80659000,5.30573300,3.78321800,-0.03850886
9.66709651,-24.45251000,8.01242500,3.44488200,-0.03678642
9.74709651,-25.23683000,10.59609000,3.01427100,-0.03475640
9.82709651,-26.08268000,13.01058000,2.50676700,-0.03248031
9.90709651,-26.94390000,15.24053000,1.98388300,-0.03005044
9.98709651,-27.68209000,17.28592000,1.43024100,-0.02746678
10.06709651,-28.22035000,19.14677000,0.92273620,-0.02476009
10.14709651,-28.46641000,20.76156000,0.49212600,-0.02205340
10.22709651,-28.35876000,22.09953000,0.18454720,-0.01937746
10.30709652,-27.85125000,23.14530000,0.01537894,-0.01685531
10.38709652,-26.95927000,23.85273000,0.01537894,-0.01457923
10.46709652,-25.69820000,24.22182000,0.18454720,-0.01254921
10.54709652,-24.11417000,24.25258000,0.49212600,-0.01079601
10.62709652,-22.26870000,23.97576000,0.92273620,-0.00928888
10.70709652,-20.22330000,23.42212000,1.43024100,-0.00796629
10.78709652,-18.05487000,22.59166000,1.98388300,-0.00673597
10.86709652,-15.76341000,21.53051000,2.50676700,-0.00547490
10.94709652,-13.44119000,20.20792000,3.01427100,-0.00409080
11.02709653,-11.13435000,18.60851000,3.44488200,-0.00255290
11.10709653,-8.90440500,16.73228000,3.78321800,-0.00086122
11.18709653,-6.81286900,14.59461000,4.02928100,0.00089198
11.26709653,-4.89050100,12.21087000,4.19845000,0.00267594
11.34709653,-3.15268200,9.61183500,4.27534400,0.00442913
11.42709653,-1.58403000,6.85900500,4.29072300,0.00612082
11.50709653,-0.13841040,3.98314500,4.25996500,0.00768947
11.58709653,1.23031500,1.04576800,4.18307100,0.00919661
11.66709653,2.59904000,-1.90698800,4.10617600,0.01067298
11.74709653,4.01390200,-4.84436500,4.02928100,0.01211860
11.82709654,5.50565900,-7.70484700,3.96776600,0.01359498
