Time,Channel A,Channel B,Channel C,Channel D
(ns),(mV),(mV),(mV),(V)

-15.81538483,0.10765260,-4.04466000,3.76783900,0.00784326
-15.73538482,0.23068400,-4.24458600,3.39874500,0.00784326
-15.65538482,0.24606300,-4.36761800,2.92199800,0.00787402
-15.57538482,0.18454720,-4.45989200,2.35297700,0.00790477
-15.49538482,0.06151574,-4.49065000,1.73782000,0.00790477
-15.41538482,-0.06151574,-4.49065000,1.12266200,0.00790477
-15.33538482,-0.18454720,-4.44451300,0.58439960,0.00790477
-15.25538482,-0.24606300,-4.36761800,0.15378940,0.00787402
-15.17538482,-0.23068400,-4.22920700,-0.09227362,0.00784326
-15.09538482,-0.10765260,-4.04466000,-0.09227362,0.00784326
-15.01538481,0.13841040,-3.78321800,0.15378940,0.00784326
-14.93538481,0.47674700,-3.47564000,0.67667320,0.00784326
-14.85538481,0.92273620,-3.10654500,1.41486200,0.00787402
-14.77538481,1.43024100,-2.67593500,2.35297700,0.00790477
-14.69538481,1.96850400,-2.21456700,3.41412400,0.00790477
-14.61538481,2.52214600,-1.73782000,4.49065000,0.00790477
-14.53538481,3.02965000,-1.26107300,5.53641700,0.00790477
-14.45538481,3.44488200,-0.83046260,6.45915300,0.00787402
-14.37538481,3.75246000,-0.44598910,7.18196300,0.00784326
-14.29538480,3.90625000,-0.12303150,7.68946800,0.00784326
-14.21538480,3.89087100,0.10765260,7.93553100,0.00784326
-14.13538480,3.70632400,0.26144190,7.93553100,0.00784326
-14.05538480,3.35260800,0.33833660,7.72022600,0.00787402
-13.97538480,2.86048200,0.33833660,7.32037400,0.00790477
-13.89538480,2.27608300,0.30757870,6.78211100,0.00790477
-13.81538480,1.67630400,0.23068400,6.16695300,0.00790477
-13.73538480,1.07652500,0.16916830,5.53641700,0.00790477
-13.65538480,0.58439960,0.09227362,4.95201700,0.00787402
-13.57538480,0.21530510,0.04613681,4.45989200,0.00784326
-13.49538479,0.01537894,0.01537894,4.07541800,0.00784326
-13.41538479,0.03075787,0.00000000,3.79859700,0.00784326
-13.33538479,0.26144190,-0.01537894,3.64480800,0.00784326
-13.25538479,0.67667320,0.00000000,3.58329200,0.00787402
-13.17538479,1.24569400,0.00000000,3.59867100,0.00790477
-13.09538479,1.90698800,0.00000000,3.64480800,0.00790477
-13.01538479,2.58366100,0.00000000,3.72170300,0.00790477
-12.93538479,3.19881900,0.00000000,3.78321800,0.00790477
-12.85538479,3.67556500,0.00000000,3.84473400,0.00787402
-12.77538478,3.96776600,-0.01537894,3.89087100,0.00784326
-12.69538478,3.99852300,0.00000000,3.92162900,0.00784326
-12.61538478,3.78321800,0.01537894,3.92162900,0.00784326
-12.53538478,3.30647100,0.04613681,3.89087100,0.00784326
-12.45538478,2.61441900,0.09227362,3.84473400,0.00787402
-12.37538478,1.75319900,0.16916830,3.78321800,0.00790477
-12.29538478,0.78432570,0.23068400,3.72170300,0.00790477
-12.21538478,-0.24606300,0.30757870,3.64480800,0.00790477
-12.13538478,-1.24569400,0.35371550,3.59867100,0.00787402
-12.05538477,-2.16843000,0.33833660,3.59867100,0.00787402
-11.97538477,-2.98351400,0.27682080,3.66018700,0.00784326
-11.89538477,-3.64480800,0.10765260,3.81397600,0.00784326
-11.81538477,-4.15231300,-0.13841040,4.06003900,0.00787402
-11.73538477,-4.50602900,-0.49212600,4.41375400,0.00793553
-11.65538477,-4.70595500,-0.92273620,4.85974400,0.00805856
-11.57538477,-4.79822800,-1.43024100,5.38262700,0.00821235
-11.49538477,-4.79822800,-1.96850400,5.92089000,0.00836614
-11.41538477,-4.73671200,-2.52214600,6.47453200,0.00851993
-11.33538477,-4.61368100,-3.01427100,6.96665800,0.00858145
-11.25538476,-4.45989200,-3.44488200,7.38188900,0.00855069
-11.17538476,-4.27534400,-3.73708200,7.67408900,0.00839690
-11.09538476,-4.04466000,-3.90625000,7.82787800,0.00805856
-11.01538476,-3.78321800,-3.90625000,7.81250000,0.00756644
-10.93538476,-3.46026100,-3.73708200,7.62795300,0.00688976
-10.85538476,-3.09116600,-3.44488200,7.28961600,0.00602854
-10.77538476,-2.67593500,-3.01427100,6.79749000,0.00501353
-10.69538476,-2.21456700,-2.52214600,6.22846900,0.00396777
-10.61538476,-1.73782000,-1.96850400,5.62869100,0.00286048
-10.53538475,-1.26107300,-1.43024100,5.02891200,0.00184547
-10.45538475,-0.83046260,-0.92273620,4.52140800,0.00098425
-10.37538475,-0.44598910,-0.49212600,4.15231300,0.00033834
-10.29538475,-0.12303150,-0.13841040,3.95238700,0.00003076
-10.21538475,0.10765260,0.10765260,3.95238700,0.00006152
-10.13538475,0.26144190,0.27682080,4.15231300,0.00046137
-10.05538475,0.33833660,0.33833660,4.52140800,0.00116880
-9.97538475,0.33833660,0.35371550,5.02891200,0.00218381
-9.89538475,0.30757870,0.30757870,5.62869100,0.00335261
-9.81538474,0.23068400,0.23068400,6.22846900,0.00455217
-9.73538474,0.16916830,0.15378940,6.79749000,0.00572097
-9.65538474,0.09227362,0.09227362,7.28961600,0.00670522
-9.57538474,0.04613681,0.03075787,7.62795300,0.00741265
-9.49538474,0.01537894,0.00000000,7.81250000,0.00778174
-9.41538474,0.00000000,0.00000000,7.82787800,0.00778174
-9.33538474,-0.01537894,0.03075787,7.67408900,0.00741265
-9.25538474,0.00000000,0.09227362,7.38188900,0.00670522
-9.17538474,0.00000000,0.15378940,6.96665800,0.00572097
-9.09538474,0.00000000,0.23068400,6.47453200,0.00455217
-9.01538473,0.00000000,0.30757870,5.92089000,0.00335261
-8.93538473,0.00000000,0.35371550,5.36724900,0.00218381
-8.85538473,0.00000000,0.33833660,4.85974400,0.00116880
-8.77538473,0.00000000,0.27682080,4.39837600,0.00046137
-8.69538473,0.00000000,0.10765260,4.06003900,0.00006152
-8.61538473,0.00000000,-0.13841040,3.81397600,0.00003076
-8.53538473,0.00000000,-0.49212600,3.70632400,0.00033834
-8.45538473,0.00000000,-0.92273620,3.69094500,0.00098425
-8.37538473,0.00000000,-1.43024100,3.76783900,0.00184547
-8.29538472,0.00000000,-1.96850400,3.89087100,0.00286048
-8.21538472,0.00000000,-2.52214600,4.01390200,0.00396777
-8.13538472,0.00000000,-3.02965000,4.13693400,0.00501353
-8.05538472,0.00000000,-3.44488200,4.18307100,0.00602854
-7.97538472,0.00000000,-3.75246000,4.16769200,0.00688976
-7.89538472,0.00000000,-3.90625000,4.02928100,0.00756644
-7.81538472,0.00000000,-3.89087100,3.78321800,0.00805856
-7.73538472,0.00000000,-3.70632400,3.41412400,0.00839690
-7.65538472,0.00000000,-3.35260800,2.92199800,0.00855069
-7.57538472,0.00000000,-2.86048200,2.35297700,0.00858145
-7.49538471,0.00000000,-2.27608300,1.73782000,0.00851993
-7.41538471,0.00000000,-1.67630400,1.12266200,0.00836614
-7.33538471,0.00000000,-1.09190400,0.58439960,0.00821235
-7.25538471,0.00000000,-0.58439960,0.15378940,0.00805856
-7.17538471,0.00000000,-0.23068400,-0.09227362,0.00793553
-7.09538471,0.00000000,-0.03075787,-0.09227362,0.00787402
-7.01538471,0.00000000,-0.01537894,0.15378940,0.00784326
-6.93538471,0.00000000,-0.16916830,0.67667320,0.00784326
-6.85538471,0.00000000,-0.49212600,1.41486200,0.00787402
-6.77538470,0.00000000,-0.92273620,2.35297700,0.00787402
-6.69538470,0.00000000,-1.43024100,3.41412400,0.00790477
-6.61538470,0.00000000,-1.98388300,4.49065000,0.00790477
-6.53538470,0.00000000,-2.50676700,5.53641700,0.00790477
-6.45538470,0.00000000,-3.01427100,6.45915300,0.00787402
-6.37538470,0.00000000,-3.44488200,7.18196300,0.00784326
-6.29538470,0.00000000,-3.78321800,7.68946800,0.00784326
-6.21538470,0.00000000,-4.02928100,7.93553100,0.00784326
-6.13538470,0.00000000,-4.19845000,7.93553100,0.00784326
-6.05538469,0.00000000,-4.27534400,7.72022600,0.00787402
-5.97538469,0.00000000,-4.29072300,7.32037400,0.00790477
-5.89538469,0.00000000,-4.25996500,6.78211100,0.00790477
-5.81538469,0.00000000,-4.18307100,6.16695300,0.00790477
-5.73538469,0.00000000,-4.10617600,5.53641700,0.00790477
-5.65538469,0.00000000,-4.02928100,4.95201700,0.00787402
-5.57538469,0.00000000,-3.96776600,4.45989200,0.00784326
-5.49538469,0.00000000,-3.93700800,4.07541800,0.00784326
-5.41538469,0.00000000,-3.92162900,3.79859700,0.00784326
-5.33538469,0.00000000,-3.92162900,3.64480800,0.00784326
-5.25538468,0.00000000,-3.93700800,3.58329200,0.00787402
-5.17538468,0.00000000,-3.93700800,3.59867100,0.00790477
-5.09538468,0.00000000,-3.95238700,3.64480800,0.00790477
-5.01538468,0.00000000,-3.95238700,3.72170300,0.00790477
-4.93538468,0.00000000,-3.93700800,3.78321800,0.00790477
-4.85538468,0.00000000,-3.93700800,3.84473400,0.00787402
-4.77538468,0.00000000,-3.92162900,3.89087100,0.00784326
-4.69538468,0.00000000,-3.92162900,3.90625000,0.00784326
-4.61538468,0.00000000,-3.93700800,3.92162900,0.00784326
-4.53538467,0.00000000,-3.96776600,3.93700800,0.00784326
-4.45538467,0.00000000,-4.02928100,3.93700800,0.00787402
-4.37538467,0.00000000,-4.10617600,3.95238700,0.00790477
-4.29538467,0.00000000,-4.18307100,3.95238700,0.00790477
-4.21538467,0.00000000,-4.25996500,3.95238700,0.00790477
-4.13538467,0.00000000,-4.29072300,3.93700800,0.00790477
-4.05538467,0.00000000,-4.27534400,3.93700800,0.00787402
-3.97538467,0.00000000,-4.18307100,3.92162900,0.00784326
-3.89538467,0.00000000,-4.02928100,3.92162900,0.00784326
-3.81538466,0.00000000,-3.79859700,3.93700800,0.00784326
-3.73538466,0.00000000,-3.49101900,3.96776600,0.00784326
-3.65538466,0.00000000,-3.10654500,4.02928100,0.00787402
-3.57538466,0.00000000,-2.67593500,4.10617600,0.00790477
-3.49538466,0.00000000,-2.21456700,4.18307100,0.00790477
-3.41538466,0.00000000,-1.73782000,4.25996500,0.00790477
-3.33538466,0.00000000,-1.26107300,4.29072300,0.00790477
-3.25538466,0.00000000,-0.83046260,4.27534400,0.00787402
-3.17538466,-0.01537894,-0.44598910,4.18307100,0.00784326
-3.09538466,0.00000000,-0.12303150,4.02928100,0.00784326
-3.01538465,0.01537894,0.10765260,3.79859700,0.00784326
-2.93538465,0.04613681,0.26144190,3.49101900,0.00784326
-2.85538465,0.09227362,0.33833660,3.10654500,0.00787402
-2.77538465,0.16916830,0.33833660,2.67593500,0.00790477
-2.69538465,0.23068400,0.30757870,2.21456700,0.00790477
-2.61538465,0.30757870,0.23068400,1.73782000,0.00790477
-2.53538465,0.35371550,0.15378940,1.26107300,0.00790477
-2.45538465,0.33833660,0.09227362,0.83046260,0.00787402
-2.37538465,0.27682080,0.03075787,0.44598910,0.00784326
-2.29538464,0.10765260,0.00000000,0.12303150,0.00784326
-2.21538464,-0.13841040,0.00000000,-0.10765260,0.00784326
-2.13538464,-0.49212600,0.03075787,-0.26144190,0.00784326
-2.05538464,-0.92273620,0.09227362,-0.33833660,0.00787402
-1.97538464,-1.43024100,0.15378940,-0.33833660,0.00790477
-1.89538464,-1.96850400,0.23068400,-0.30757870,0.00790477
-1.81538464,-2.52214600,0.30757870,-0.23068400,0.00790477
-1.73538464,-3.01427100,0.33833660,-0.13841040,0.00790477
-1.65538464,-3.44488200,0.33833660,-0.01537894,0.00787402
-1.57538463,-3.73708200,0.26144190,0.07689468,0.00784326
-1.49538463,-3.90625000,0.10765260,0.07689468,0.00784326
-1.41538463,-3.90625000,-0.12303150,-0.12303150,0.00784326
-1.33538463,-3.73708200,-0.44598910,-0.55364170,0.00784326
-1.25538463,-3.44488200,-0.83046260,-1.23031500,0.00787402
-1.17538463,-3.01427100,-1.26107300,-2.10691400,0.00790477
-1.09538463,-2.52214600,-1.73782000,-3.07578700,0.00790477
-1.01538463,-1.96850400,-2.21456700,-3.95238700,0.00790477
-0.93538463,-1.43024100,-2.67593500,-4.32148100,0.00790477
-0.85538463,-0.92273620,-3.10654500,-3.86011300,0.00787402
-0.77538462,-0.49212600,-3.49101900,-2.62979800,0.00784326
-0.69538462,-0.13841040,-3.79859700,-0.92273620,0.00784326
-0.61538462,0.10765260,-4.02928100,0.89197830,0.00784326
-0.53538462,0.27682080,-4.18307100,2.41449300,0.00784326
-0.45538462,0.33833660,-4.27534400,3.38336600,0.00787402
-0.37538462,0.35371550,-4.29072300,3.82935500,0.00790477
-0.29538462,0.30757870,-4.25996500,4.12155500,0.00790477
-0.21538462,0.23068400,-4.18307100,5.05967000,0.00790477
-0.13538462,0.13841040,-4.10617600,7.84325700,0.00787402
-0.05538461,0.03075787,-4.02928100,13.87180000,0.00787402
0.02461539,-0.04613681,-3.96776600,24.45251000,0.00784326
0.10461539,-0.04613681,-3.92162900,40.61577000,0.00784326
0.18461539,0.09227362,-3.92162900,62.93060000,0.00787402
0.26461539,0.41523130,-3.96776600,91.41240000,0.00793553
0.34461539,0.93811510,-4.02928100,125.33830000,0.00805856
0.42461539,1.61478800,-4.10617600,163.32430000,0.00821235
0.50461539,2.36835600,-4.18307100,203.43260000,0.00836614
0.58461539,3.04502900,-4.25996500,243.29480000,0.00851993
0.66461539,3.35260800,-4.29072300,280.37340000,0.00858145
0.74461540,3.02965000,-4.27534400,312.22310000,0.00855069
0.82461540,2.12229300,-4.19845000,336.79870000,0.00836614
0.90461540,0.76894680,-4.02928100,352.59290000,0.00805856
0.98461540,-0.78432570,-3.78321800,358.86750000,0.00759720
1.06461540,-2.29146100,-3.44488200,355.63790000,0.00698204
1.14461540,-3.55253400,-3.01427100,343.70390000,0.00621309
1.22461540,-4.56754400,-2.50676700,324.46480000,0.00535187
1.30461540,-5.53641700,-1.98388300,299.79700000,0.00442913
1.38461540,-6.93590000,-1.43024100,271.71500000,0.00347564
1.46461541,-9.65797200,-0.95349410,242.21820000,0.00249139
1.54461541,-14.65613000,-0.58439960,213.02900000,0.00150714
1.62461541,-22.34559000,-0.32295760,185.50070000,0.00064592
1.70461541,-32.91092000,-0.10765260,160.49460000,0.00012303
1.78461541,-46.16756000,0.12303150,138.33350000,0.00003076
1.86461541,-61.70029000,0.41523130,118.97150000,0.00052288
1.94461541,-78.90932000,0.83046260,101.97770000,0.00159941
2.02461541,-97.24101000,1.35334600,86.82947000,0.00319882
2.10461541,-116.20320000,1.87623000,72.91154000,0.00507505
2.18461542,-135.56530000,2.27608300,59.74717000,0.00682825
2.26461542,-155.63480000,2.19918800,47.02879000,0.00775098
2.34461542,-176.85780000,1.32258800,34.77177000,0.00722810
2.42461542,-199.32640000,-0.33833660,23.17606000,0.00519808
2.50461542,-223.05610000,-2.62979800,12.61073000,0.00193775
2.58461542,-247.86230000,-5.25959600,3.49101900,-0.00206078
2.66461542,-273.37600000,-7.96628900,-3.84473400,-0.00633612
2.74461542,-299.10490000,-10.48843000,-9.22736200,-0.01042692
2.82461542,-324.48020000,-12.79527000,-12.65686000,-0.01421014
2.90461542,-348.96340000,-15.08674000,-14.42544000,-0.01802411
2.98461543,-372.06260000,-17.83957000,-15.11749000,-0.02273007
3.06461543,-393.63930000,-22.03802000,-15.39431000,-0.02989665
3.14461543,-413.63190000,-28.66634000,-15.51735000,-0.04133858
3.22461543,-431.77900000,-38.30893000,-15.62500000,-0.05807086
3.30461543,-447.83460000,-51.19648000,-15.70189000,-0.08064715
3.38461543,-461.53720000,-67.23671000,-15.62500000,-0.10906740
3.46461543,-472.64080000,-86.04515000,-15.24053000,-0.14271650
3.54461543,-480.99160000,-106.97590000,-14.39468000,-0.18061020
3.62461543,-486.51260000,-129.33690000,-13.02596000,-0.22139520
3.70461544,-489.23470000,-152.42060000,-11.14973000,-0.26362570
3.78461544,-489.31160000,-175.73510000,-8.98129900,-0.30613310
3.86461544,-487.11240000,-199.18800000,-6.73597400,-0.34824060
3.94461544,-483.08310000,-222.87150000,-4.55216500,-0.38948700
4.02461544,-477.53130000,-246.69350000,-2.55290300,-0.42947220
4.10461544,-470.65700000,-270.54620000,-0.78432570,-0.46785800
4.18461544,-462.58300000,-294.21440000,0.70743110,-0.50439830
4.26461544,-453.30950000,-317.46740000,1.95312500,-0.53884720
4.34461544,-442.79030000,-339.95140000,2.95275600,-0.57092770
4.42461545,-430.93310000,-361.31270000,3.76783900,-0.60030140
4.50461545,-417.66110000,-381.12080000,4.45989200,-0.62650720
4.58461545,-402.86660000,-399.05260000,5.07504900,-0.64896040
4.66461545,-386.65720000,-414.87760000,5.65944900,-0.66726130
4.74461545,-369.44820000,-428.48790000,6.24384800,-0.68082550
4.82461545,-351.77780000,-439.60690000,6.85900500,-0.68909940
4.90461545,-334.16890000,-447.97300000,7.50492100,-0.69146780
4.98461545,-317.12900000,-453.41720000,8.18159400,-0.68762300
5.06461545,-300.98110000,-455.78550000,8.87364700,-0.67741140
5.14461545,-285.83290000,-455.04730000,9.53494100,-0.66107900
5.22461546,-271.56120000,-451.29490000,10.16548000,-0.63908710
5.30461546,-257.90480000,-444.74350000,10.71912000,-0.61232780
5.38461546,-244.18670000,-435.70060000,11.19587000,-0.58184670
5.46461546,-229.86890000,-424.59700000,11.58034000,-0.54884350
5.54461546,-214.90520000,-411.98630000,11.84178000,-0.51470230
5.62461546,-199.51090000,-398.31450000,11.94943000,-0.48059180
5.70461546,-184.08590000,-383.91970000,11.87254000,-0.44746550
5.78461546,-169.09140000,-369.07910000,11.61110000,-0.41590800
5.86461546,-154.95820000,-353.86930000,11.13435000,-0.38616510
5.94461547,-141.96300000,-338.29050000,10.47305000,-0.35820620
6.02461547,-130.16730000,-322.29640000,9.64259300,-0.33166210
6.10461547,-119.43280000,-305.76400000,8.68909800,-0.30610240
6.18461547,-109.20580000,-288.52420000,7.65871000,-0.28088090
6.26461547,-98.91731000,-270.53090000,6.64370100,-0.25556720
6.34461547,-88.49040000,-252.16840000,5.70558500,-0.23040720
6.42461547,-78.03272000,-233.91360000,4.87512300,-0.20601620
6.50461547,-67.74422000,-216.28940000,4.19845000,-0.18316310
6.58461547,-57.93245000,-199.81850000,3.69094500,-0.16264760
6.66461548,-48.90501000,-184.83940000,3.35260800,-0.14505410
6.74461548,-40.84645000,-171.47510000,3.16806100,-0.13065940
6.82461548,-33.86442000,-159.66410000,3.09116600,-0.11930980
6.90461548,-27.86663000,-149.06800000,3.10654500,-0.11051300
6.98461548,-22.54552000,-139.02560000,3.16806100,-0.10313120
7.06461548,-17.57812000,-128.96780000,3.27571300,-0.09602609
7.14461548,-12.97982000,-118.80230000,3.39874500,-0.08885950
7.22461548,-8.85826700,-108.65220000,3.56791300,-0.08147760
7.30461548,-5.36724900,-98.80966000,3.78321800,-0.07415723
7.38461548,-2.70669300,-89.67458000,4.07541800,-0.06720596
7.46461549,-1.06114600,-81.56988000,4.42913300,-0.06108514
7.54461549,-0.46136810,-74.69550000,4.87512300,-0.05610236
7.62461549,-0.89197830,-69.11294000,5.38262700,-0.05238066
7.70461549,-2.15305100,-64.62228000,5.92089000,-0.04979700
7.78461549,-3.92162900,-60.71604000,6.47453200,-0.04789001
7.86461549,-5.82861700,-56.88668000,6.96665800,-0.04607530
7.94461549,-7.72022600,-52.96506000,7.38188900,-0.04422982
8.02461549,-9.47342500,-48.96653000,7.67408900,-0.04226132
8.10461549,-11.04208000,-45.02953000,7.82787800,-0.04023130
8.18461550,-12.45694000,-41.36934000,7.81250000,-0.03826280
8.26461550,-13.73339000,-38.21666000,7.62795300,-0.03647884
8.34461550,-14.97908000,-35.74065000,7.28961600,-0.03500246
8.42461550,-16.19402000,-33.94131000,6.79749000,-0.03389518
8.50461550,-17.43971000,-32.72638000,6.22846900,-0.03312623
8.58461550,-18.67003000,-31.75750000,5.62869100,-0.03260335
8.66461550,-19.85421000,-30.65022000,5.02891200,-0.03211122
8.74461550,-20.97687000,-29.20460000,4.52140800,-0.03168061
8.82461550,-22.05339000,-27.28223000,4.15231300,-0.03140379
8.90461551,-23.06841000,-24.89850000,3.95238700,-0.03131152
8.98461551,-23.97576000,-22.08415000,3.95238700,-0.03152682
9.06461551,-24.77547000,-18.96223000,4.15231300,-0.03214198
9.14461551,-25.43676000,-15.67113000,4.52140800,-0.03309547
9.22461551,-25.97502000,-12.31853000,5.02891200,-0.03438730
9.30461551,-26.35950000,-8.99667800,5.62869100,-0.03589444
9.38461551,-26.63632000,-5.72096400,6.22846900,-0.03740158
9.46461551,-26.82087000,-2.49138800,6.79749000,-0.03866265
9.54461551,-26.97465000,0.67667320,7.28961600,-0.03952387
9.62461551,-27.12844000,3.70632400,7.62795300,-0.03986220
9.70461552,-27.32837000,6.52066900,7.81250000,-0.03958539
9.78461552,-27.60519000,9.08895100,7.82787800,-0.03869341
9.86461552,-27.98966000,11.34966000,7.67408900,-0.03724778
9.94461552,-28.43565000,13.30278000,7.38188900,-0.03524852
10.02461552,-28.92778000,14.93295000,6.96665800,-0.03284941
10.10461552,-29.38915000,16.25554000,6.47453200,-0.03017347
10.18461552,-29.72748000,17.34744000,5.92089000,-0.02731299
10.26461552,-29.83514000,18.23942000,5.38262700,-0.02439099
10.34461552,-29.63521000,18.91609000,4.85974400,-0.02156127
10.42461553,-29.06619000,19.36208000,4.41375400,-0.01891609
10.50461553,-28.09732000,19.59276000,4.06003900,-0.01667077
10.58461553,-26.72859000,19.57738000,3.81397600,-0.01482530
10.66461553,-24.99077000,19.31594000,3.66018700,-0.01350271
10.74461553,-22.94537000,18.80844000,3.59867100,-0.01264149
10.82461553,-20.65391000,18.07025000,3.59867100,-0.01214936
10.90461553,-18.17790000,17.11676000,3.64480800,-0.01193406
10.98461553,-15.59424000,15.96334000,3.72170300,-0.01178027
11.06461553,-12.93369000,14.59461000,3.78321800,-0.01153420
11.14461553,-10.24237000,12.97982000,3.84473400,-0.01098056
11.22461554,-7.61257400,11.11897000,3.89087100,-0.01005782
