Time,Channel A,Channel B,Channel C,Channel D
(ns),(mV),(mV),(mV),(V)

-15.26956583,0.01537894,-4.02928100,3.78321800,0.00784326
-15.18956582,0.04613681,-4.18307100,3.44488200,0.00784326
-15.10956582,0.09227362,-4.27534400,3.01427100,0.00787402
-15.02956582,0.16916830,-4.29072300,2.50676700,0.00790477
-14.94956582,0.23068400,-4.25996500,1.98388300,0.00790477
-14.86956582,0.30757870,-4.18307100,1.43024100,0.00790477
-14.78956582,0.35371550,-4.10617600,0.92273620,0.00790477
-14.70956582,0.33833660,-4.02928100,0.50750490,0.00787402
-14.62956582,0.27682080,-3.96776600,0.19992620,0.00784326
-14.54956582,0.10765260,-3.92162900,0.03075787,0.00784326
-14.46956581,-0.13841040,-3.92162900,0.01537894,0.00784326
-14.38956581,-0.49212600,-3.96776600,0.13841040,0.00784326
-14.30956581,-0.92273620,-4.02928100,0.39985230,0.00787402
-14.22956581,-1.43024100,-4.10617600,0.76894680,0.00790477
-14.14956581,-1.96850400,-4.18307100,1.19955700,0.00790477
-14.06956581,-2.52214600,-4.25996500,1.67630400,0.00790477
-13.98956581,-3.01427100,-4.29072300,2.16843000,0.00790477
-13.90956581,-3.44488200,-4.27534400,2.66055600,0.00787402
-13.82956581,-3.73708200,-4.18307100,3.16806100,0.00784326
-13.74956580,-3.90625000,-4.02928100,3.66018700,0.00784326
-13.66956580,-3.90625000,-3.79859700,4.18307100,0.00784326
-13.58956580,-3.73708200,-3.49101900,4.72133400,0.00784326
-13.50956580,-3.44488200,-3.10654500,5.30573300,0.00787402
-13.42956580,-3.01427100,-2.67593500,5.89013200,0.00790477
-13.34956580,-2.52214600,-2.21456700,6.47453200,0.00790477
-13.26956580,-1.96850400,-1.73782000,7.01279500,0.00790477
-13.18956580,-1.43024100,-1.26107300,7.47416300,0.00790477
-13.10956580,-0.92273620,-0.83046260,7.81250000,0.00787402
-13.02956580,-0.47674700,-0.44598910,7.98166800,0.00784326
-12.94956579,-0.13841040,-0.12303150,7.95091000,0.00784326
-12.86956579,0.10765260,0.10765260,7.67408900,0.00784326
-12.78956579,0.23068400,0.26144190,7.18196300,0.00784326
-12.70956579,0.24606300,0.33833660,6.44377400,0.00787402
-12.62956579,0.18454720,0.33833660,5.53641700,0.00790477
-12.54956579,0.06151574,0.30757870,4.49065000,0.00790477
-12.46956579,-0.06151574,0.23068400,3.41412400,0.00790477
-12.38956579,-0.18454720,0.16916830,2.35297700,0.00790477
-12.30956579,-0.24606300,0.10765260,1.41486200,0.00787402
-12.22956578,-0.23068400,0.04613681,0.67667320,0.00784326
-12.14956578,-0.10765260,0.01537894,0.15378940,0.00784326
-12.06956578,0.13841040,-0.01537894,-0.09227362,0.00784326
-11.98956578,0.47674700,-0.04613681,-0.09227362,0.00784326
-11.90956578,0.92273620,-0.10765260,0.15378940,0.00787402
-11.82956578,1.43024100,-0.16916830,0.58439960,0.00790477
-11.74956578,1.96850400,-0.23068400,1.12266200,0.00790477
-11.66956578,2.52214600,-0.30757870,1.73782000,0.00790477
-11.58956578,3.01427100,-0.35371550,2.35297700,0.00790477
-11.50956577,3.44488200,-0.35371550,2.92199800,0.00787402
-11.42956577,3.73708200,-0.27682080,3.39874500,0.00784326
-11.34956577,3.90625000,-0.12303150,3.76783900,0.00784326
-11.26956577,3.90625000,0.15378940,4.04466000,0.00784326
-11.18956577,3.73708200,0.53826270,4.21382900,0.00784326
-11.10956577,3.44488200,1.01501000,4.29072300,0.00787402
-11.02956577,3.01427100,1.59940900,4.29072300,0.00790477
-10.94956577,2.52214600,2.21456700,4.25996500,0.00790477
-10.86956577,1.96850400,2.82972400,4.18307100,0.00790477
-10.78956577,1.43024100,3.36798700,4.10617600,0.00790477
-10.70956576,0.92273620,3.78321800,4.02928100,0.00787402
-10.62956576,0.49212600,4.01390200,3.96776600,0.00784326
-10.54956576,0.13841040,4.01390200,3.93700800,0.00784326
-10.46956576,-0.10765260,3.76783900,3.92162900,0.00784326
-10.38956576,-0.27682080,3.26033400,3.92162900,0.00784326
-10.30956576,-0.33833660,2.52214600,3.93700800,0.00787402
-10.22956576,-0.35371550,1.58403000,3.93700800,0.00790477
-10.14956576,-0.30757870,0.53826270,3.95238700,0.00790477
-10.06956576,-0.23068400,-0.53826270,3.95238700,0.00790477
-9.98956575,-0.16916830,-1.58403000,3.95238700,0.00790477
-9.90956575,-0.09227362,-2.52214600,3.93700800,0.00787402
-9.82956575,-0.04613681,-3.26033400,3.93700800,0.00787402
-9.74956575,-0.01537894,-3.76783900,3.92162900,0.00784326
-9.66956575,0.00000000,-4.01390200,3.90625000,0.00781250
-9.58956575,0.01537894,-4.01390200,3.89087100,0.00778174
-9.50956575,0.00000000,-3.78321800,3.84473400,0.00768947
-9.42956575,0.00000000,-3.36798700,3.78321800,0.00756644
-9.34956575,0.00000000,-2.82972400,3.72170300,0.00744341
-9.26956574,0.00000000,-2.21456700,3.64480800,0.00728962
-9.18956574,0.00000000,-1.59940900,3.59867100,0.00719734
-9.10956574,0.00000000,-1.03038900,3.59867100,0.00719734
-9.02956574,-0.01537894,-0.53826270,3.66018700,0.00732037
-8.94956574,0.00000000,-0.15378940,3.81397600,0.00762795
-8.86956574,0.01537894,0.12303150,4.06003900,0.00812008
-8.78956574,0.04613681,0.32295760,4.41375400,0.00882751
-8.70956574,0.09227362,0.44598910,4.85974400,0.00971949
-8.62956574,0.16916830,0.50750490,5.38262700,0.01076526
-8.54956574,0.23068400,0.53826270,5.92089000,0.01184178
-8.46956573,0.30757870,0.53826270,6.47453200,0.01294907
-8.38956573,0.35371550,0.50750490,6.96665800,0.01393332
-8.30956573,0.35371550,0.43061020,7.36651000,0.01473302
-8.22956573,0.27682080,0.30757870,7.65871000,0.01531742
-8.14956573,0.12303150,0.12303150,7.81250000,0.01562500
-8.06956573,-0.15378940,-0.13841040,7.82787800,0.01565576
-7.98956573,-0.53826270,-0.49212600,7.72022600,0.01544045
-7.90956573,-1.01501000,-0.93811510,7.47416300,0.01494833
-7.82956573,-1.59940900,-1.43024100,7.13582600,0.01427165
-7.74956572,-2.21456700,-1.96850400,6.70521600,0.01341043
-7.66956572,-2.82972400,-2.52214600,6.22846900,0.01245694
-7.58956572,-3.36798700,-3.01427100,5.72096400,0.01144193
-7.50956572,-3.78321800,-3.44488200,5.19808000,0.01039616
-7.42956572,-4.01390200,-3.73708200,4.69057600,0.00938115
-7.34956572,-4.01390200,-3.90625000,4.16769200,0.00833538
-7.26956572,-3.76783900,-3.90625000,3.67556500,0.00735113
-7.18956572,-3.26033400,-3.73708200,3.16806100,0.00633612
-7.10956572,-2.52214600,-3.44488200,2.67593500,0.00535187
-7.02956572,-1.58403000,-3.01427100,2.16843000,0.00433686
-6.94956571,-0.53826270,-2.52214600,1.67630400,0.00335261
-6.86956571,0.53826270,-1.96850400,1.19955700,0.00239911
-6.78956571,1.58403000,-1.43024100,0.76894680,0.00153789
-6.70956571,2.52214600,-0.93811510,0.39985230,0.00079970
-6.62956571,3.26033400,-0.49212600,0.13841040,0.00030758
-6.54956571,3.76783900,-0.13841040,0.01537894,0.00003076
-6.46956571,4.01390200,0.12303150,0.03075787,0.00003076
-6.38956571,4.01390200,0.30757870,0.19992620,0.00030758
-6.30956571,3.78321800,0.43061020,0.50750490,0.00079970
-6.22956570,3.36798700,0.50750490,0.92273620,0.00153789
-6.14956570,2.82972400,0.53826270,1.43024100,0.00239911
-6.06956570,2.21456700,0.53826270,1.98388300,0.00335261
-5.98956570,1.58403000,0.50750490,2.50676700,0.00433686
-5.90956570,1.01501000,0.43061020,3.01427100,0.00535187
-5.82956570,0.52288380,0.30757870,3.44488200,0.00633612
-5.74956570,0.13841040,0.12303150,3.78321800,0.00735113
-5.66956570,-0.10765260,-0.13841040,4.02928100,0.00833538
-5.58956570,-0.23068400,-0.46136810,4.19845000,0.00938115
-5.50956569,-0.24606300,-0.83046260,4.27534400,0.01039616
-5.42956569,-0.18454720,-1.27645200,4.29072300,0.01144193
-5.34956569,-0.06151574,-1.73782000,4.25996500,0.01245694
-5.26956569,0.06151574,-2.21456700,4.18307100,0.01341043
-5.18956569,0.18454720,-2.67593500,4.10617600,0.01424090
-5.10956569,0.24606300,-3.10654500,4.02928100,0.01491757
-5.02956569,0.21530510,-3.49101900,3.96776600,0.01540969
-4.94956569,0.09227362,-3.79859700,3.93700800,0.01565576
-4.86956569,-0.12303150,-4.02928100,3.92162900,0.01565576
-4.78956569,-0.43061020,-4.18307100,3.92162900,0.01540969
-4.70956568,-0.83046260,-4.27534400,3.93700800,0.01491757
-4.62956568,-1.26107300,-4.29072300,3.93700800,0.01424090
-4.54956568,-1.73782000,-4.25996500,3.95238700,0.01341043
-4.46956568,-2.21456700,-4.18307100,3.95238700,0.01245694
-4.38956568,-2.67593500,-4.10617600,3.93700800,0.01144193
-4.30956568,-3.10654500,-4.02928100,3.93700800,0.01039616
-4.22956568,-3.49101900,-3.96776600,3.92162900,0.00935039
-4.14956568,-3.79859700,-3.93700800,3.92162900,0.00833538
-4.06956568,-4.02928100,-3.92162900,3.93700800,0.00735113
-3.98956567,-4.18307100,-3.92162900,3.96776600,0.00642840
-3.90956567,-4.27534400,-3.93700800,4.02928100,0.00553642
-3.82956567,-4.29072300,-3.93700800,4.10617600,0.00467520
-3.74956567,-4.25996500,-3.95238700,4.18307100,0.00381398
-3.66956567,-4.18307100,-3.95238700,4.25996500,0.00301427
-3.58956567,-4.10617600,-3.95238700,4.29072300,0.00221457
-3.50956567,-4.01390200,-3.93700800,4.27534400,0.00147638
-3.42956567,-3.95238700,-3.92162900,4.19845000,0.00083046
-3.34956567,-3.92162900,-3.92162900,4.02928100,0.00024606
-3.26956566,-3.93700800,-3.92162900,3.78321800,-0.00021531
-3.18956566,-3.99852300,-3.92162900,3.44488200,-0.00058440
-3.10956566,-4.12155500,-3.93700800,3.01427100,-0.00086122
-3.02956566,-4.27534400,-3.95238700,2.50676700,-0.00101501
-2.94956566,-4.42913300,-3.95238700,1.98388300,-0.00107653
-2.86956566,-4.56754400,-3.95238700,1.43024100,-0.00107653
-2.78956566,-4.62906000,-3.95238700,0.92273620,-0.00101501
-2.70956566,-4.61368100,-3.93700800,0.49212600,-0.00086122
-2.62956566,-4.45989200,-3.92162900,0.18454720,-0.00061516
-2.54956566,-4.13693400,-3.92162900,0.01537894,-0.00024606
-2.46956565,-3.66018700,-3.92162900,0.01537894,0.00027682
-2.38956565,-2.99889300,-3.92162900,0.18454720,0.00092274
-2.30956565,-2.18380900,-3.93700800,0.49212600,0.00166093
-2.22956565,-1.24569400,-3.95238700,0.92273620,0.00255290
-2.14956565,-0.24606300,-3.95238700,1.43024100,0.00347564
-2.06956565,0.78432570,-3.95238700,1.98388300,0.00442913
-1.98956565,1.75319900,-3.95238700,2.52214600,0.00535187
-1.90956565,2.59904000,-3.93700800,3.02965000,0.00621309
-1.82956565,3.29109200,-3.92162900,3.47564000,0.00698204
-1.74956564,3.76783900,-3.92162900,3.79859700,0.00759720
-1.66956564,4.01390200,-3.92162900,4.01390200,0.00805856
-1.58956564,4.04466000,-3.92162900,4.07541800,0.00836614
-1.50956564,3.87549200,-3.93700800,3.99852300,0.00855069
-1.42956564,3.52177600,-3.95238700,3.79859700,0.00858145
-1.34956564,3.06040800,-3.95238700,3.55253400,0.00851993
-1.26956564,2.52214600,-3.95238700,3.27571300,0.00836614
-1.18956564,1.93774600,-3.93700800,3.21419800,0.00821235
-1.10956564,1.35334600,-3.93700800,3.46026100,0.00805856
-1.02956563,0.78432570,-3.92162900,3.86011300,0.00793553
-0.94956563,0.26144190,-3.92162900,4.02928100,0.00787402
-0.86956563,-0.24606300,-3.93700800,3.61405000,0.00784326
-0.78956563,-0.72281000,-3.96776600,2.27608300,0.00784326
-0.70956563,-1.18417800,-4.02928100,-0.13841040,0.00787402
-0.62956563,-1.61478800,-4.10617600,-3.46026100,0.00787402
-0.54956563,-2.04539800,-4.18307100,-7.16658400,0.00790477
-0.46956563,-2.44525100,-4.25996500,-10.39616000,0.00790477
-0.38956563,-2.84510300,-4.29072300,-11.85716000,0.00787402
-0.30956563,-3.22957700,-4.27534400,-10.15010000,0.00787402
-0.22956562,-3.56791300,-4.18307100,-3.98314500,0.00784326
-0.14956562,-3.82935500,-4.02928100,7.62795300,0.00784326
-0.06956562,-3.96776600,-3.79859700,25.28297000,0.00787402
0.01043438,-3.96776600,-3.49101900,48.93578000,0.00793553
0.09043438,-3.78321800,-3.10654500,77.94044000,0.00805856
0.17043438,-3.47564000,-2.67593500,111.00520000,0.00821235
0.25043438,-3.07578700,-2.21456700,146.34590000,0.00836614
0.33043438,-2.66055600,-1.73782000,181.77900000,0.00851993
0.41043438,-2.46063000,-1.27645200,215.02830000,0.00858145
0.49043439,-2.62979800,-0.83046260,243.89450000,0.00855069
0.57043439,-3.07578700,-0.46136810,266.57850000,0.00839690
0.65043439,-3.66018700,-0.13841040,281.77290000,0.00805856
0.73043439,-4.13693400,0.12303150,288.83180000,0.00756644
0.81043439,-4.32148100,0.30757870,287.80140000,0.00688976
0.89043439,-4.09079700,0.43061020,279.37370000,0.00602854
0.97043439,-3.47564000,0.50750490,264.77910000,0.00501353
1.05043439,-2.69131400,0.53826270,245.58620000,0.00396777
1.13043439,-2.24532500,0.53826270,223.48670000,0.00286048
1.21043439,-2.98351400,0.49212600,200.14150000,0.00181472
1.29043440,-5.75172200,0.38447340,176.91930000,0.00086122
1.37043440,-10.96518000,0.23068400,154.91200000,0.00018455
1.45043440,-18.73154000,0.06151574,134.78100000,-0.00006152
1.53043440,-28.89702000,-0.06151574,116.78760000,0.00021531
1.61043440,-41.03100000,-0.10765260,100.82430000,0.00113804
1.69043440,-54.65674000,-0.07689468,86.59879000,0.00270669
1.77043440,-69.26672000,0.03075787,73.64972000,0.00476747
1.85043440,-84.49187000,0.15378940,61.54650000,0.00713583
1.93043440,-100.25530000,0.21530510,49.95078000,0.00944267
2.01043441,-116.95680000,-0.01537894,38.69341000,0.01104208
2.09043441,-135.18080000,-0.75356790,27.83587000,0.01147269
2.17043441,-155.11190000,-1.89160900,17.56274000,0.01067298
2.25043441,-176.81160000,-3.24495600,8.18159400,0.00895054
2.33043441,-200.11070000,-4.55216500,0.01537894,0.00667446
2.41043441,-224.65550000,-5.53641700,-6.67445900,0.00436762
2.49043441,-249.92310000,-6.07468000,-11.74951000,0.00233760
2.57043441,-275.29830000,-6.15157400,-15.24053000,0.00067667
2.65043441,-300.19680000,-6.09005900,-17.33206000,-0.00098425
2.73043442,-324.12650000,-6.38225800,-18.50086000,-0.00347564
2.81043442,-346.91800000,-8.05856200,-19.20829000,-0.00839690
2.89043442,-368.52550000,-12.08784000,-19.65428000,-0.01734744
2.97043442,-388.71800000,-19.02374000,-19.86959000,-0.03134227
3.05043442,-407.23420000,-29.11233000,-19.79269000,-0.05090428
3.13043442,-423.79730000,-42.21518000,-19.31594000,-0.07594119
3.21043442,-438.19200000,-57.97859000,-18.28555000,-0.10596090
3.29043442,-450.17220000,-75.80277000,-16.60925000,-0.13991760
3.37043442,-459.63020000,-95.01106000,-14.28703000,-0.17664250
3.45043442,-466.50460000,-115.03440000,-11.39579000,-0.21487450
3.53043443,-470.88760000,-135.48840000,-8.19697300,-0.25356790
3.61043443,-473.02530000,-156.43450000,-4.98277500,-0.29223050
3.69043443,-473.30210000,-178.08810000,-1.95312500,-0.33067790
3.77043443,-471.87190000,-200.47980000,0.73818890,-0.36854090
3.85043443,-468.85760000,-223.57900000,2.98351400,-0.40551180
3.93043443,-464.29010000,-247.21640000,4.73671200,-0.44140630
4.01043443,-458.12310000,-271.14600000,6.04392200,-0.47585510
4.09043443,-450.27990000,-294.96800000,6.90514200,-0.50858150
4.17043443,-440.71420000,-318.22090000,7.45878400,-0.53912400
4.25043444,-429.39530000,-340.41280000,7.75098400,-0.56699070
4.33043444,-416.30780000,-361.05130000,7.88939400,-0.59165850
4.41043444,-401.66710000,-379.87510000,7.93553100,-0.61269680
4.49043444,-385.93440000,-396.63810000,7.95091000,-0.62967520
4.57043444,-369.61730000,-411.03280000,7.93553100,-0.64210130
4.65043444,-353.23880000,-422.75160000,7.88939400,-0.64945250
4.73043444,-337.22930000,-431.57910000,7.78174200,-0.65139030
4.81043444,-321.86580000,-437.34620000,7.61257400,-0.64779160
4.89043444,-307.20960000,-440.02210000,7.33575200,-0.63871800
4.97043445,-293.15330000,-439.68380000,6.95127900,-0.62453860
5.05043445,-279.41990000,-436.53110000,6.47453200,-0.60593010
5.13043445,-265.44050000,-430.81010000,5.92089000,-0.58359990
5.21043445,-250.73820000,-422.96690000,5.38262700,-0.55853220
5.29043445,-235.37460000,-413.44730000,4.85974400,-0.53177290
5.37043445,-219.59580000,-402.60520000,4.41375400,-0.50421380
5.45043445,-203.83240000,-390.70190000,4.06003900,-0.47656250
5.53043445,-188.57650000,-377.87590000,3.81397600,-0.44928030
5.61043445,-174.24330000,-364.18860000,3.66018700,-0.42258240
5.69043445,-161.07900000,-349.64010000,3.59867100,-0.39643820
5.77043446,-149.11420000,-334.19960000,3.59867100,-0.37069390
5.85043446,-138.17970000,-317.83650000,3.64480800,-0.34510340
5.93043446,-127.66060000,-300.53520000,3.72170300,-0.31920520
6.01043446,-116.98760000,-282.40340000,3.78321800,-0.29278420
6.09043446,-106.05310000,-263.88710000,3.84473400,-0.26627090
6.17043446,-94.91880000,-245.55550000,3.89087100,-0.24031130
6.25043446,-83.86134000,-227.99270000,3.90625000,-0.21561270
6.33043446,-73.17297000,-211.67570000,3.92162900,-0.19291340
6.41043446,-63.19205000,-196.92730000,3.93700800,-0.17276700
6.49043447,-54.14923000,-183.85520000,3.93700800,-0.15538880
6.57043447,-46.13681000,-172.30560000,3.95238700,-0.14068650
6.65043447,-39.10863000,-161.94020000,3.95238700,-0.12822960
6.73043447,-32.69562000,-152.03620000,3.95238700,-0.11703370
6.81043447,-26.55942000,-141.99370000,3.95238700,-0.10620690
6.89043447,-20.66929000,-131.72060000,3.93700800,-0.09550320
6.97043447,-15.11749000,-121.26290000,3.93700800,-0.08504552
7.05043447,-10.10396000,-110.92830000,3.92162900,-0.07517225
7.13043447,-5.79785900,-101.03960000,3.90625000,-0.06634473
7.21043448,-2.39911400,-91.96603000,3.89087100,-0.05893208
7.29043448,0.01537894,-83.92285000,3.84473400,-0.05324188
7.37043448,1.43024100,-76.97158000,3.78321800,-0.04930487
7.45043448,1.99926200,-71.01993000,3.72170300,-0.04690576
7.53043448,1.99926200,-65.63730000,3.64480800,-0.04536786
7.61043448,1.75319900,-60.34695000,3.59867100,-0.04407603
7.69043448,1.38410400,-55.13348000,3.59867100,-0.04278420
7.77043448,0.90735720,-50.04306000,3.66018700,-0.04136934
7.85043448,0.33833660,-45.30634000,3.81397600,-0.03992372
7.93043448,-0.38447340,-41.16941000,4.06003900,-0.03857037
8.01043449,-1.33796700,-37.84756000,4.41375400,-0.03752461
8.09043449,-2.58366100,-35.46383000,4.85974400,-0.03690945
8.17043449,-4.09079700,-34.00283000,5.38262700,-0.03675566
8.25043449,-5.87475300,-33.31078000,5.92089000,-0.03709400
8.33043449,-7.78174200,-32.95706000,6.47453200,-0.03761688
8.41043449,-9.70410800,-32.49569000,6.96665800,-0.03813976
8.49043449,-11.58034000,-31.66523000,7.38188900,-0.03857037
8.57043449,-13.34892000,-30.34264000,7.67408900,-0.03890871
8.65043449,-14.94833000,-28.52793000,7.82787800,-0.03912402
8.73043450,-16.37857000,-26.29798000,7.82787800,-0.03930856
8.81043450,-17.57812000,-23.76046000,7.67408900,-0.03952387
8.89043450,-18.57775000,-21.06914000,7.38188900,-0.03980069
8.97043450,-19.37746000,-18.36245000,6.96665800,-0.04010827
9.05043450,-20.02337000,-15.70189000,6.47453200,-0.04047736
9.13043450,-20.57702000,-13.04134000,5.92089000,-0.04075418
9.21043450,-21.08452000,-10.30389000,5.38262700,-0.04081570
9.29043450,-21.63816000,-7.45878400,4.85974400,-0.04066191
9.37043450,-22.28408000,-4.52140800,4.41375400,-0.04026206
9.45043451,-23.06841000,-1.52251500,4.06003900,-0.03961614
9.53043451,-24.03728000,1.52251500,3.81397600,-0.03878568
9.61043451,-25.15994000,4.53678600,3.66018700,-0.03777067
9.69043451,-26.40563000,7.48954200,3.59867100,-0.03660187
9.77043451,-27.69746000,10.33464000,3.59867100,-0.03534080
9.85043451,-28.97392000,13.02596000,3.64480800,-0.03398745
9.93043451,-30.14272000,15.54810000,3.72170300,-0.03248031
10.01043451,-31.06545000,17.87033000,3.78321800,-0.03081939
10.09043451,-31.66523000,19.91572000,3.84473400,-0.02894316
10.17043451,-31.86516000,21.65354000,3.89087100,-0.02688238
10.25043452,-31.64985000,23.00689000,3.90625000,-0.02469857
10.33043452,-31.00393000,23.96038000,3.92162900,-0.02236097
10.41043452,-29.95817000,24.51402000,3.93700800,-0.01993110
10.49043452,-28.57406000,24.68319000,3.93700800,-0.01747047
10.57043452,-26.88238000,24.48326000,3.95238700,-0.01500984
10.65043452,-24.96001000,23.96038000,3.95238700,-0.01254921
10.73043452,-22.83772000,23.14530000,3.95238700,-0.01008858
10.81043452,-20.56164000,22.03802000,3.95238700,-0.00765871
10.89043452,-18.14714000,20.63853000,3.93700800,-0.00525960
10.97043453,-15.62500000,18.91609000,3.93700800,-0.00298351
11.05043453,-13.05672000,16.85531000,3.92162900,-0.00092274
11.13043453,-10.47305000,14.44082000,3.90625000,0.00086122
11.21043453,-7.92015200,11.70337000,3.89087100,0.00233760
11.29043453,-5.42876500,8.67371900,3.84473400,0.00344488
11.37043453,-2.98351400,5.41338600,3.78321800,0.00427534
11.45043453,-0.61515740,2.01464100,3.72170300,0.00482899
11.53043453,1.70706200,-1.46099900,3.64480800,0.00522884
11.61043453,3.99852300,-4.92125900,3.59867100,0.00562869
11.69043453,6.28998500,-8.27386800,3.59867100,0.00612082
