Time,Channel A,Channel B,Channel C,Channel D
(ns),(mV),(mV),(mV),(V)

-15.57647083,3.90625000,0.12303150,3.93700800,0.00808932
-15.49647082,3.78321800,0.30757870,3.96776600,0.00848917
-15.41647082,3.53715500,0.43061020,4.02928100,0.00873524
-15.33647082,3.18344000,0.50750490,4.10617600,0.00891978
-15.25647082,2.75283000,0.53826270,4.18307100,0.00898130
-15.17647082,2.27608300,0.53826270,4.25996500,0.00898130
-15.09647082,1.78395700,0.50750490,4.29072300,0.00891978
-15.01647082,1.26107300,0.43061020,4.27534400,0.00873524
-14.93647082,0.75356790,0.30757870,4.19845000,0.00848917
-14.85647082,0.24606300,0.12303150,4.02928100,0.00808932
-14.77647081,-0.24606300,-0.13841040,3.78321800,0.00756644
-14.69647081,-0.75356790,-0.49212600,3.44488200,0.00685901
-14.61647081,-1.26107300,-0.93811510,3.01427100,0.00599779
-14.53647081,-1.78395700,-1.43024100,2.50676700,0.00501353
-14.45647081,-2.27608300,-1.96850400,1.98388300,0.00396777
-14.37647081,-2.75283000,-2.52214600,1.43024100,0.00286048
-14.29647081,-3.18344000,-3.01427100,0.92273620,0.00184547
-14.21647081,-3.53715500,-3.44488200,0.49212600,0.00098425
-14.13647081,-3.78321800,-3.73708200,0.16916830,0.00033834
-14.05647080,-3.90625000,-3.90625000,0.01537894,0.00003076
-13.97647080,-3.89087100,-3.90625000,0.03075787,0.00006152
-13.89647080,-3.73708200,-3.73708200,0.23068400,0.00046137
-13.81647080,-3.42950300,-3.44488200,0.58439960,0.00116880
-13.73647080,-3.01427100,-3.01427100,1.09190400,0.00218381
-13.65647080,-2.52214600,-2.52214600,1.67630400,0.00335261
-13.57647080,-1.96850400,-1.96850400,2.27608300,0.00455217
-13.49647080,-1.43024100,-1.43024100,2.86048200,0.00572097
-13.41647080,-0.92273620,-0.92273620,3.35260800,0.00670522
-13.33647080,-0.49212600,-0.49212600,3.70632400,0.00741265
-13.25647079,-0.13841040,-0.13841040,3.89087100,0.00778174
-13.17647079,0.10765260,0.10765260,3.89087100,0.00781250
-13.09647079,0.27682080,0.27682080,3.70632400,0.00750492
-13.01647079,0.33833660,0.33833660,3.35260800,0.00688976
-12.93647079,0.35371550,0.35371550,2.86048200,0.00605930
-12.85647079,0.30757870,0.30757870,2.27608300,0.00504429
-12.77647079,0.23068400,0.23068400,1.67630400,0.00393701
-12.69647079,0.16916830,0.16916830,1.09190400,0.00286048
-12.61647079,0.09227362,0.09227362,0.58439960,0.00187623
-12.53647078,0.04613681,0.04613681,0.23068400,0.00098425
-12.45647078,0.01537894,0.01537894,0.03075787,0.00027682
-12.37647078,0.00000000,0.00000000,0.01537894,-0.00024606
-12.29647078,-0.01537894,-0.01537894,0.16916830,-0.00061516
-12.21647078,0.00000000,0.00000000,0.49212600,-0.00086122
-12.13647078,0.00000000,0.00000000,0.92273620,-0.00101501
-12.05647078,0.00000000,0.00000000,1.43024100,-0.00107653
-11.97647078,0.00000000,0.00000000,1.98388300,-0.00107653
-11.89647078,0.00000000,0.00000000,2.50676700,-0.00101501
-11.81647077,0.00000000,0.00000000,3.01427100,-0.00086122
-11.73647077,-0.01537894,-0.01537894,3.44488200,-0.00061516
-11.65647077,0.00000000,0.00000000,3.78321800,-0.00024606
-11.57647077,0.01537894,0.01537894,4.02928100,0.00027682
-11.49647077,0.04613681,0.04613681,4.19845000,0.00098425
-11.41647077,0.09227362,0.09227362,4.27534400,0.00187623
-11.33647077,0.16916830,0.16916830,4.29072300,0.00286048
-11.25647077,0.23068400,0.23068400,4.25996500,0.00393701
-11.17647077,0.30757870,0.30757870,4.18307100,0.00504429
-11.09647077,0.35371550,0.35371550,4.10617600,0.00602854
-11.01647076,0.33833660,0.33833660,4.02928100,0.00688976
-10.93647076,0.27682080,0.27682080,3.96776600,0.00747416
-10.85647076,0.10765260,0.10765260,3.93700800,0.00781250
-10.77647076,-0.13841040,-0.13841040,3.92162900,0.00781250
-10.69647076,-0.49212600,-0.49212600,3.92162900,0.00747416
-10.61647076,-0.92273620,-0.92273620,3.93700800,0.00688976
-10.53647076,-1.43024100,-1.43024100,3.93700800,0.00602854
-10.45647076,-1.96850400,-1.96850400,3.95238700,0.00504429
-10.37647076,-2.52214600,-2.52214600,3.95238700,0.00393701
-10.29647075,-3.01427100,-3.01427100,3.95238700,0.00286048
-10.21647075,-3.44488200,-3.44488200,3.93700800,0.00184547
-10.13647075,-3.73708200,-3.73708200,3.92162900,0.00098425
-10.05647075,-3.90625000,-3.90625000,3.92162900,0.00027682
-9.97647075,-3.90625000,-3.90625000,3.92162900,-0.00021531
-9.89647075,-3.73708200,-3.73708200,3.92162900,-0.00055364
-9.81647075,-3.44488200,-3.44488200,3.93700800,-0.00067667
-9.73647075,-3.01427100,-3.01427100,3.95238700,-0.00070743
-9.65647075,-2.52214600,-2.52214600,3.95238700,-0.00061516
-9.57647074,-1.96850400,-1.96850400,3.95238700,-0.00046137
-9.49647074,-1.43024100,-1.43024100,3.95238700,-0.00030758
-9.41647074,-0.92273620,-0.92273620,3.93700800,-0.00018455
-9.33647074,-0.49212600,-0.49212600,3.92162900,-0.00006152
-9.25647074,-0.13841040,-0.13841040,3.92162900,0.00000000
-9.17647074,0.10765260,0.10765260,3.92162900,0.00000000
-9.09647074,0.27682080,0.27682080,3.92162900,-0.00006152
-9.01647074,0.33833660,0.33833660,3.93700800,-0.00018455
-8.93647074,0.35371550,0.35371550,3.95238700,-0.00030758
-8.85647074,0.30757870,0.30757870,3.95238700,-0.00046137
-8.77647073,0.23068400,0.23068400,3.95238700,-0.00061516
-8.69647073,0.16916830,0.16916830,3.95238700,-0.00067667
-8.61647073,0.09227362,0.10765260,3.93700800,-0.00067667
-8.53647073,0.04613681,0.04613681,3.92162900,-0.00052288
-8.45647073,0.01537894,0.01537894,3.92162900,-0.00021531
-8.37647073,0.00000000,-0.01537894,3.92162900,0.00024606
-8.29647073,-0.01537894,-0.04613681,3.92162900,0.00089198
-8.21647073,0.00000000,-0.10765260,3.93700800,0.00166093
-8.13647073,0.00000000,-0.16916830,3.95238700,0.00252215
-8.05647072,0.00000000,-0.23068400,3.95238700,0.00347564
-7.97647072,0.00000000,-0.30757870,3.95238700,0.00442913
-7.89647072,0.00000000,-0.35371550,3.93700800,0.00535187
-7.81647072,0.00000000,-0.35371550,3.93700800,0.00621309
-7.73647072,0.00000000,-0.27682080,3.92162900,0.00698204
-7.65647072,0.00000000,-0.12303150,3.92162900,0.00759720
-7.57647072,0.00000000,0.15378940,3.93700800,0.00805856
-7.49647072,0.00000000,0.53826270,3.96776600,0.00836614
-7.41647072,0.00000000,1.01501000,4.02928100,0.00855069
-7.33647072,0.00000000,1.59940900,4.10617600,0.00858145
-7.25647071,0.00000000,2.21456700,4.18307100,0.00851993
-7.17647071,0.00000000,2.82972400,4.25996500,0.00836614
-7.09647071,0.00000000,3.36798700,4.29072300,0.00821235
-7.01647071,0.00000000,3.78321800,4.27534400,0.00805856
-6.93647071,-0.01537894,3.99852300,4.19845000,0.00793553
-6.85647071,0.00000000,4.01390200,4.02928100,0.00787402
-6.77647071,0.01537894,3.76783900,3.78321800,0.00784326
-6.69647071,0.04613681,3.30647100,3.44488200,0.00784326
-6.61647071,0.09227362,2.61441900,3.01427100,0.00787402
-6.53647070,0.16916830,1.75319900,2.50676700,0.00787402
-6.45647070,0.23068400,0.78432570,1.98388300,0.00790477
-6.37647070,0.30757870,-0.24606300,1.43024100,0.00790477
-6.29647070,0.35371550,-1.24569400,0.92273620,0.00790477
-6.21647070,0.33833660,-2.16843000,0.49212600,0.00787402
-6.13647070,0.27682080,-2.98351400,0.16916830,0.00784326
-6.05647070,0.10765260,-3.64480800,0.01537894,0.00784326
-5.97647070,-0.13841040,-4.15231300,0.03075787,0.00784326
-5.89647070,-0.49212600,-4.50602900,0.23068400,0.00784326
-5.81647069,-0.92273620,-4.70595500,0.58439960,0.00787402
-5.73647069,-1.43024100,-4.79822800,1.09190400,0.00790477
-5.65647069,-1.96850400,-4.79822800,1.67630400,0.00790477
-5.57647069,-2.52214600,-4.73671200,2.27608300,0.00790477
-5.49647069,-3.02965000,-4.61368100,2.86048200,0.00790477
-5.41647069,-3.44488200,-4.45989200,3.35260800,0.00787402
-5.33647069,-3.75246000,-4.27534400,3.70632400,0.00784326
-5.25647069,-3.90625000,-4.04466000,3.89087100,0.00784326
-5.17647069,-3.89087100,-3.78321800,3.89087100,0.00784326
-5.09647069,-3.70632400,-3.46026100,3.70632400,0.00784326
-5.01647068,-3.35260800,-3.09116600,3.35260800,0.00787402
-4.93647068,-2.86048200,-2.67593500,2.86048200,0.00790477
-4.85647068,-2.27608300,-2.21456700,2.27608300,0.00790477
-4.77647068,-1.67630400,-1.73782000,1.67630400,0.00790477
-4.69647068,-1.09190400,-1.27645200,1.09190400,0.00790477
-4.61647068,-0.58439960,-0.83046260,0.58439960,0.00787402
-4.53647068,-0.23068400,-0.46136810,0.23068400,0.00784326
-4.45647068,-0.03075787,-0.13841040,0.03075787,0.00784326
-4.37647068,-0.01537894,0.12303150,0.01537894,0.00784326
-4.29647067,-0.16916830,0.30757870,0.16916830,0.00784326
-4.21647067,-0.49212600,0.43061020,0.49212600,0.00787402
-4.13647067,-0.92273620,0.50750490,0.92273620,0.00790477
-4.05647067,-1.43024100,0.53826270,1.43024100,0.00790477
-3.97647067,-1.98388300,0.53826270,1.98388300,0.00790477
-3.89647067,-2.50676700,0.50750490,2.50676700,0.00790477
-3.81647067,-2.99889300,0.43061020,2.99889300,0.00787402
-3.73647067,-3.42950300,0.30757870,3.42950300,0.00784326
-3.65647067,-3.78321800,0.12303150,3.78321800,0.00784326
-3.57647066,-4.04466000,-0.13841040,4.04466000,0.00784326
-3.49647066,-4.24458600,-0.49212600,4.24458600,0.00784326
-3.41647066,-4.36761800,-0.93811510,4.36761800,0.00787402
-3.33647066,-4.45989200,-1.43024100,4.45989200,0.00790477
-3.25647066,-4.49065000,-1.96850400,4.49065000,0.00790477
-3.17647066,-4.49065000,-2.52214600,4.49065000,0.00790477
-3.09647066,-4.44451300,-3.02965000,4.45989200,0.00790477
-3.01647066,-4.36761800,-3.44488200,4.38299700,0.00787402
-2.93647066,-4.22920700,-3.75246000,4.24458600,0.00784326
-2.85647066,-4.04466000,-3.90625000,4.06003900,0.00784326
-2.77647065,-3.78321800,-3.89087100,3.76783900,0.00784326
-2.69647065,-3.47564000,-3.70632400,3.38336600,0.00784326
-2.61647065,-3.10654500,-3.35260800,2.90661900,0.00787402
-2.53647065,-2.67593500,-2.86048200,2.35297700,0.00790477
-2.45647065,-2.21456700,-2.27608300,1.73782000,0.00790477
-2.37647065,-1.73782000,-1.67630400,1.12266200,0.00790477
-2.29647065,-1.26107300,-1.09190400,0.58439960,0.00787402
-2.21647065,-0.83046260,-0.58439960,0.15378940,0.00787402
-2.13647065,-0.43061020,-0.21530510,-0.07689468,0.00784326
-2.05647064,-0.12303150,-0.03075787,-0.09227362,0.00784326
-1.97647064,0.09227362,-0.03075787,0.15378940,0.00787402
-1.89647064,0.21530510,-0.21530510,0.63053640,0.00793553
-1.81647064,0.24606300,-0.58439960,1.32258800,0.00805856
-1.73647064,0.18454720,-1.09190400,2.19918800,0.00821235
-1.65647064,0.06151574,-1.67630400,3.16806100,0.00836614
-1.57647064,-0.06151574,-2.27608300,4.19845000,0.00851993
-1.49647064,-0.18454720,-2.86048200,5.22883800,0.00858145
-1.41647064,-0.24606300,-3.35260800,6.22846900,0.00855069
-1.33647063,-0.23068400,-3.70632400,7.08968900,0.00839690
-1.25647063,-0.10765260,-3.89087100,7.68946800,0.00805856
-1.17647063,0.13841040,-3.90625000,7.90477300,0.00756644
-1.09647063,0.52288380,-3.75246000,7.65871000,0.00688976
-1.01647063,1.01501000,-3.44488200,6.93590000,0.00602854
-0.93647063,1.58403000,-3.02965000,5.82861700,0.00501353
-0.85647063,2.21456700,-2.52214600,4.49065000,0.00396777
-0.77647063,2.82972400,-1.96850400,3.19881900,0.00286048
-0.69647063,3.36798700,-1.43024100,2.50676700,0.00184547
-0.61647063,3.78321800,-0.92273620,2.82972400,0.00098425
-0.53647062,3.99852300,-0.49212600,4.21382900,0.00036909
-0.45647062,4.01390200,-0.13841040,6.47453200,0.00003076
-0.37647062,3.76783900,0.10765260,9.30425600,0.00003076
-0.29647062,3.30647100,0.27682080,12.28777000,0.00036909
-0.21647062,2.61441900,0.33833660,15.13287000,0.00098425
-0.13647062,1.75319900,0.35371550,17.76267000,0.00184547
-0.05647062,0.78432570,0.30757870,20.40785000,0.00286048
0.02352938,-0.24606300,0.23068400,23.63743000,0.00396777
0.10352938,-1.27645200,0.16916830,28.49717000,0.00501353
0.18352939,-2.26070400,0.09227362,36.15588000,0.00602854
0.26352939,-3.10654500,0.04613681,47.76698000,0.00688976
0.34352939,-3.73708200,0.01537894,64.25319000,0.00756644
0.42352939,-4.02928100,0.00000000,86.18356000,0.00805856
0.50352939,-3.93700800,-0.01537894,113.57340000,0.00839690
0.58352939,-3.47564000,0.00000000,145.77690000,0.00855069
0.66352939,-2.69131400,0.00000000,181.57910000,0.00858145
0.74352939,-1.72244100,0.00000000,219.11910000,0.00851993
0.82352939,-0.76894680,0.00000000,256.19770000,0.00836614
0.90352939,-0.24606300,0.00000000,290.35430000,0.00821235
0.98352940,-0.44598910,-0.01537894,319.28210000,0.00805856
1.06352940,-1.39948300,-0.01537894,340.95100000,0.00793553
1.14352940,-2.98351400,-0.01537894,353.96160000,0.00784326
1.22352940,-4.92125900,0.01537894,357.52950000,0.00784326
1.30352940,-6.95127900,0.09227362,351.73160000,0.00793553
1.38352940,-8.85826700,0.18454720,337.32160000,0.00805856
1.46352940,-10.56533000,0.32295760,315.72960000,0.00821235
1.54352940,-12.25701000,0.47674700,288.80100000,0.00836614
1.62352940,-14.39468000,0.61515740,258.61220000,0.00851993
1.70352941,-17.91646000,0.66129420,227.17760000,0.00851993
1.78352941,-23.77584000,0.55364170,196.28140000,0.00833538
1.86352941,-32.43417000,0.35371550,167.33820000,0.00805856
1.94352941,-44.07603000,0.10765260,141.25550000,0.00784326
2.02352941,-58.56299000,-0.07689468,118.44860000,0.00793553
2.10352941,-75.46444000,-0.10765260,98.84042000,0.00842766
2.18352941,-94.16522000,0.04613681,82.03124000,0.00944267
2.26352941,-114.06560000,0.38447340,67.43663000,0.01088829
2.34352941,-134.59650000,0.78432570,54.39529000,0.01248770
2.42352942,-155.45030000,1.04576800,42.32283000,0.01381029
2.50352942,-176.85780000,0.72281000,30.81939000,0.01402559
2.58352942,-199.14180000,-0.55364170,19.82345000,0.01233391
2.66352942,-222.37940000,-2.84510300,9.51956200,0.00867372
2.74352942,-246.52440000,-6.01316400,0.21530510,0.00322958
2.82352942,-271.37670000,-9.78100300,-7.65871000,-0.00347564
2.90352942,-296.58280000,-13.82566000,-13.77953000,-0.01079601
2.98352942,-321.69660000,-17.88570000,-17.93184000,-0.01827018
3.06352942,-346.19520000,-21.83809000,-20.16179000,-0.02565207
3.14352942,-369.55580000,-25.82123000,-20.70005000,-0.03318775
3.22352943,-391.36320000,-30.28112000,-20.16179000,-0.04167692
3.30352943,-411.47880000,-36.15588000,-19.20829000,-0.05284203
3.38352943,-429.88740000,-44.41437000,-18.14714000,-0.06849778
3.46352943,-446.31210000,-55.64099000,-17.13213000,-0.08975147
3.54352943,-460.55300000,-70.05106000,-16.16326000,-0.11724900
3.62352943,-472.33330000,-87.58304000,-15.17901000,-0.15102120
3.70352943,-481.48370000,-107.85250000,-14.02559000,-0.19045280
3.78352943,-487.80450000,-130.22880000,-12.56459000,-0.23443650
3.86352943,-491.28010000,-153.94320000,-10.73450000,-0.28143450
3.94352944,-491.95680000,-178.30340000,-8.50455100,-0.32990900
4.02352944,-489.98830000,-202.69440000,-6.05930100,-0.37826030
4.10352944,-485.77440000,-226.97770000,-3.58329200,-0.42553520
4.18352944,-479.74590000,-251.12260000,-1.18417800,-0.47105680
4.26352944,-472.28710000,-274.99080000,1.04576800,-0.51402560
4.34352944,-463.62880000,-298.39750000,3.02965000,-0.55398010
4.42352944,-453.95540000,-321.14290000,4.75209100,-0.59048970
4.50352944,-443.29780000,-342.99640000,6.19771100,-0.62330830
4.58352944,-431.59450000,-363.65030000,7.38188900,-0.65228220
4.66352945,-418.78380000,-382.81250000,8.36614100,-0.67728840
4.74352945,-404.75820000,-400.15990000,9.18122500,-0.69814220
4.82352945,-389.34850000,-415.41580000,9.87327700,-0.71462850
4.90352945,-372.60090000,-428.48790000,10.45768000,-0.72665480
4.98352945,-354.89970000,-439.28390000,10.94980000,-0.73400590
5.06352945,-336.75260000,-447.58860000,11.36503000,-0.73631270
5.14352945,-318.69770000,-453.23260000,11.65723000,-0.73323700
5.22352945,-301.24260000,-456.03160000,11.84178000,-0.72444020
5.30352945,-284.75640000,-455.86240000,11.85716000,-0.70983020
5.38352945,-269.34670000,-452.70970000,11.71875000,-0.68949930
5.46352946,-254.95200000,-446.66580000,11.41117000,-0.66390870
5.54352946,-241.24940000,-437.94600000,10.96518000,-0.63382750
5.62352946,-227.60820000,-426.84240000,10.42692000,-0.60017840
5.70352946,-213.41350000,-413.84720000,9.82714000,-0.56425320
5.78352946,-198.64970000,-399.49860000,9.22736200,-0.52740530
5.86352946,-183.47070000,-384.31960000,8.64296200,-0.49095720
5.94352946,-168.27630000,-368.72540000,8.10469900,-0.45598550
6.02352946,-153.51250000,-352.99270000,7.59719500,-0.42322840
6.10352946,-139.59460000,-337.26010000,7.13582600,-0.39302410
6.18352947,-126.78390000,-321.54280000,6.68983700,-0.36531130
6.26352947,-115.17290000,-305.74860000,6.27460600,-0.33969000
6.34352947,-104.65370000,-289.69300000,5.85937500,-0.31554500
6.42352947,-94.68811000,-273.12990000,5.45952300,-0.29192300
6.50352947,-84.78408000,-255.93620000,5.04429100,-0.26817790
6.58352947,-74.84928000,-238.38890000,4.67519700,-0.24437130
6.66352947,-65.02214000,-220.93380000,4.33686000,-0.22099530
6.74352947,-55.51796000,-204.12460000,4.04466000,-0.19872660
6.82352947,-46.64431000,-188.43810000,3.81397600,-0.17839570
6.90352948,-38.67802000,-174.24330000,3.67556500,-0.16058690
6.98352948,-31.77288000,-161.69410000,3.61405000,-0.14566930
7.06352948,-26.00578000,-150.71360000,3.59867100,-0.13358140
7.14352948,-21.29983000,-140.97870000,3.64480800,-0.12395420
7.22352948,-17.27055000,-131.82820000,3.72170300,-0.11558810
7.30352948,-13.59498000,-122.64700000,3.78321800,-0.10749880
7.38352948,-10.24237000,-113.31200000,3.84473400,-0.09925566
7.46352948,-7.28961600,-103.88470000,3.89087100,-0.09085876
7.54352948,-4.87512300,-94.65735000,3.92162900,-0.08249262
7.62352948,-3.18344000,-85.93749000,3.92162900,-0.07455709
7.70352949,-2.36835600,-78.06348000,3.89087100,-0.06745202
7.78352949,-2.49138800,-71.23524000,3.84473400,-0.06145423
7.86352949,-3.50639700,-65.52965000,3.78321800,-0.05671752
7.94352949,-5.27497500,-60.80831000,3.72170300,-0.05314961
8.02352949,-7.44340500,-56.64062000,3.64480800,-0.05025836
8.10352949,-9.68872900,-52.58058000,3.59867100,-0.04761319
8.18352949,-11.81102000,-48.53592000,3.59867100,-0.04502953
8.26352949,-13.64112000,-44.58353000,3.66018700,-0.04253814
8.34352949,-15.10212000,-40.89259000,3.81397600,-0.04026206
8.42352950,-16.17864000,-37.70915000,4.06003900,-0.03829355
8.50352950,-16.88607000,-35.20238000,4.41375400,-0.03684793
8.58352950,-17.28592000,-33.54146000,4.85974400,-0.03598671
8.66352950,-17.45509000,-32.68024000,5.38262700,-0.03574065
8.74352950,-17.51661000,-32.48031000,5.92089000,-0.03601747
8.82352950,-17.51661000,-32.54183000,6.47453200,-0.03654036
8.90352950,-17.56274000,-32.40342000,6.96665800,-0.03712475
8.98352950,-17.77805000,-31.78826000,7.38188900,-0.03767839
9.06352950,-18.27018000,-30.55795000,7.67408900,-0.03826280
9.14352951,-19.06988000,-28.65096000,7.82787800,-0.03887795
9.22352951,-20.23868000,-26.12881000,7.81250000,-0.03961614
9.30352951,-21.73044000,-23.09916000,7.62795300,-0.04060039
9.38352951,-23.51439000,-19.73118000,7.28961600,-0.04186147
9.46352951,-25.46752000,-16.16326000,6.79749000,-0.04330709
9.54352951,-27.49754000,-12.53383000,6.22846900,-0.04490650
9.62352951,-29.46604000,-8.85826700,5.62869100,-0.04638287
9.70352951,-31.28075000,-5.12118600,5.02891200,-0.04755167
9.78352951,-32.83403000,-1.36872500,4.52140800,-0.04822835
9.86352951,-34.09510000,2.36835600,4.15231300,-0.04828986
9.94352952,-34.98708000,6.04392200,3.95238700,-0.04764395
10.02352952,-35.52534000,9.62721400,3.95238700,-0.04629060
10.10352952,-35.70989000,13.10285000,4.15231300,-0.04426058
10.18352952,-35.57148000,16.42470000,4.52140800,-0.04164616
10.26352952,-35.15625000,19.57738000,5.02891200,-0.03853961
10.34352952,-34.49495000,22.48400000,5.62869100,-0.03506397
10.42352952,-33.60298000,25.14456000,6.22846900,-0.03140379
10.50352952,-32.51107000,27.46678000,6.79749000,-0.02762057
10.58352952,-31.23462000,29.32763000,7.28961600,-0.02389887
10.66352953,-29.80438000,30.63484000,7.62795300,-0.02036171
10.74352953,-28.26648000,31.31151000,7.81250000,-0.01716289
10.82352953,-26.63632000,31.28075000,7.82787800,-0.01433317
10.90352953,-24.92926000,30.54257000,7.67408900,-0.01190330
10.98352953,-23.17606000,29.12770000,7.38188900,-0.00990404
11.06352953,-21.39210000,27.14382000,6.96665800,-0.00827387
11.14352953,-19.54663000,24.66781000,6.47453200,-0.00688976
11.22352953,-17.63964000,21.88423000,5.92089000,-0.00565945
11.30352953,-15.62500000,18.88533000,5.38262700,-0.00445989
11.38352953,-13.48733000,15.76341000,4.87512300,-0.00319882
