Time,Channel A,Channel B,Channel C,Channel D
(ns),(mV),(mV),(mV),(V)

-15.34999983,0.01537894,-3.90625000,0.01537894,0.00784326
-15.26999982,0.04613681,-3.73708200,0.18454720,0.00784326
-15.18999982,0.09227362,-3.44488200,0.49212600,0.00787402
-15.10999982,0.16916830,-3.01427100,0.92273620,0.00787402
-15.02999982,0.23068400,-2.52214600,1.43024100,0.00790477
-14.94999982,0.30757870,-1.96850400,1.98388300,0.00790477
-14.86999982,0.35371550,-1.43024100,2.50676700,0.00790477
-14.78999982,0.33833660,-0.92273620,3.01427100,0.00787402
-14.70999982,0.27682080,-0.49212600,3.44488200,0.00784326
-14.62999982,0.10765260,-0.13841040,3.78321800,0.00784326
-14.54999981,-0.13841040,0.10765260,4.02928100,0.00784326
-14.46999981,-0.49212600,0.27682080,4.19845000,0.00784326
-14.38999981,-0.92273620,0.33833660,4.27534400,0.00787402
-14.30999981,-1.43024100,0.35371550,4.29072300,0.00790477
-14.22999981,-1.96850400,0.30757870,4.25996500,0.00790477
-14.14999981,-2.52214600,0.23068400,4.18307100,0.00790477
-14.06999981,-3.01427100,0.15378940,4.10617600,0.00790477
-13.98999981,-3.44488200,0.09227362,4.02928100,0.00787402
-13.90999981,-3.73708200,0.03075787,3.96776600,0.00784326
-13.82999980,-3.90625000,0.00000000,3.93700800,0.00784326
-13.74999980,-3.90625000,0.00000000,3.92162900,0.00784326
-13.66999980,-3.73708200,0.03075787,3.92162900,0.00784326
-13.58999980,-3.44488200,0.09227362,3.93700800,0.00787402
-13.50999980,-3.01427100,0.15378940,3.93700800,0.00790477
-13.42999980,-2.52214600,0.23068400,3.95238700,0.00790477
-13.34999980,-1.96850400,0.30757870,3.95238700,0.00790477
-13.26999980,-1.43024100,0.35371550,3.95238700,0.00790477
-13.18999980,-0.92273620,0.33833660,3.93700800,0.00787402
-13.10999980,-0.49212600,0.27682080,3.92162900,0.00784326
-13.02999979,-0.13841040,0.10765260,3.92162900,0.00784326
-12.94999979,0.10765260,-0.13841040,3.92162900,0.00784326
-12.86999979,0.27682080,-0.49212600,3.92162900,0.00784326
-12.78999979,0.33833660,-0.92273620,3.93700800,0.00787402
-12.70999979,0.35371550,-1.43024100,3.95238700,0.00790477
-12.62999979,0.30757870,-1.96850400,3.95238700,0.00790477
-12.54999979,0.23068400,-2.52214600,3.95238700,0.00790477
-12.46999979,0.16916830,-3.02965000,3.95238700,0.00790477
-12.38999979,0.09227362,-3.44488200,3.93700800,0.00787402
-12.30999978,0.04613681,-3.75246000,3.92162900,0.00784326
-12.22999978,0.01537894,-3.90625000,3.92162900,0.00784326
-12.14999978,0.00000000,-3.89087100,3.92162900,0.00784326
-12.06999978,-0.01537894,-3.70632400,3.92162900,0.00784326
-11.98999978,0.00000000,-3.35260800,3.93700800,0.00787402
-11.90999978,0.00000000,-2.86048200,3.95238700,0.00790477
-11.82999978,0.00000000,-2.27608300,3.95238700,0.00790477
-11.74999978,0.00000000,-1.67630400,3.95238700,0.00790477
-11.66999978,0.00000000,-1.09190400,3.95238700,0.00790477
-11.58999977,0.00000000,-0.58439960,3.93700800,0.00787402
-11.50999977,0.00000000,-0.23068400,3.92162900,0.00784326
-11.42999977,0.00000000,-0.03075787,3.92162900,0.00784326
-11.34999977,0.00000000,-0.01537894,3.92162900,0.00784326
-11.26999977,0.00000000,-0.16916830,3.92162900,0.00784326
-11.18999977,0.00000000,-0.49212600,3.93700800,0.00787402
-11.10999977,0.00000000,-0.92273620,3.95238700,0.00790477
-11.02999977,0.00000000,-1.43024100,3.95238700,0.00790477
-10.94999977,0.00000000,-1.98388300,3.95238700,0.00790477
-10.86999977,0.00000000,-2.50676700,3.95238700,0.00787402
-10.78999976,0.00000000,-2.99889300,3.93700800,0.00787402
-10.70999976,-0.01537894,-3.42950300,3.92162900,0.00784326
-10.62999976,0.00000000,-3.78321800,3.92162900,0.00784326
-10.54999976,0.01537894,-4.04466000,3.92162900,0.00787402
-10.46999976,0.04613681,-4.24458600,3.92162900,0.00793553
-10.38999976,0.09227362,-4.36761800,3.93700800,0.00805856
-10.30999976,0.16916830,-4.45989200,3.95238700,0.00821235
-10.22999976,0.23068400,-4.49065000,3.95238700,0.00836614
-10.14999976,0.30757870,-4.49065000,3.95238700,0.00851993
-10.06999975,0.33833660,-4.44451300,3.95238700,0.00858145
-9.98999975,0.33833660,-4.36761800,3.93700800,0.00855069
-9.90999975,0.26144190,-4.22920700,3.93700800,0.00839690
-9.82999975,0.10765260,-4.04466000,3.92162900,0.00805856
-9.74999975,-0.12303150,-3.78321800,3.90625000,0.00756644
-9.66999975,-0.44598910,-3.47564000,3.89087100,0.00688976
-9.58999975,-0.83046260,-3.10654500,3.84473400,0.00602854
-9.50999975,-1.26107300,-2.67593500,3.78321800,0.00501353
-9.42999975,-1.73782000,-2.21456700,3.72170300,0.00396777
-9.34999974,-2.21456700,-1.73782000,3.64480800,0.00286048
-9.26999974,-2.67593500,-1.27645200,3.59867100,0.00184547
-9.18999974,-3.10654500,-0.83046260,3.58329200,0.00098425
-9.10999974,-3.47564000,-0.46136810,3.64480800,0.00036909
-9.02999974,-3.78321800,-0.13841040,3.79859700,0.00003076
-8.94999974,-4.04466000,0.12303150,4.07541800,0.00003076
-8.86999974,-4.22920700,0.30757870,4.45989200,0.00036909
-8.78999974,-4.36761800,0.43061020,4.95201700,0.00098425
-8.70999974,-4.44451300,0.50750490,5.53641700,0.00184547
-8.62999974,-4.49065000,0.53826270,6.16695300,0.00286048
-8.54999973,-4.49065000,0.53826270,6.78211100,0.00396777
-8.46999973,-4.44451300,0.50750490,7.30499500,0.00501353
-8.38999973,-4.36761800,0.43061020,7.72022600,0.00602854
-8.30999973,-4.22920700,0.30757870,7.93553100,0.00688976
-8.22999973,-4.04466000,0.12303150,7.93553100,0.00756644
-8.14999973,-3.78321800,-0.13841040,7.68946800,0.00805856
-8.06999973,-3.47564000,-0.46136810,7.22810000,0.00839690
-7.98999973,-3.10654500,-0.83046260,6.55142700,0.00855069
-7.90999973,-2.67593500,-1.27645200,5.69020700,0.00858145
-7.82999972,-2.21456700,-1.73782000,4.73671200,0.00851993
-7.74999972,-1.73782000,-2.21456700,3.70632400,0.00836614
-7.66999972,-1.26107300,-2.67593500,2.70669300,0.00821235
-7.58999972,-0.83046260,-3.10654500,1.76857800,0.00805856
-7.50999972,-0.44598910,-3.49101900,0.93811510,0.00793553
-7.42999972,-0.12303150,-3.79859700,0.27682080,0.00784326
-7.34999972,0.10765260,-4.01390200,-0.23068400,0.00784326
-7.26999972,0.26144190,-4.15231300,-0.56902060,0.00793553
-7.18999972,0.33833660,-4.18307100,-0.76894680,0.00805856
-7.10999972,0.33833660,-4.12155500,-0.84584150,0.00821235
-7.02999971,0.30757870,-4.01390200,-0.84584150,0.00836614
-6.94999971,0.23068400,-3.89087100,-0.78432570,0.00851993
-6.86999971,0.16916830,-3.76783900,-0.67667320,0.00858145
-6.78999971,0.09227362,-3.69094500,-0.52288380,0.00855069
-6.70999971,0.04613681,-3.70632400,-0.35371550,0.00839690
-6.62999971,0.01537894,-3.81397600,-0.12303150,0.00805856
-6.54999971,0.00000000,-4.06003900,0.13841040,0.00756644
-6.46999971,-0.01537894,-4.39837600,0.46136810,0.00688976
-6.38999971,0.00000000,-4.85974400,0.84584150,0.00602854
-6.30999970,0.00000000,-5.36724900,1.27645200,0.00501353
-6.22999970,0.00000000,-5.92089000,1.73782000,0.00396777
-6.14999970,0.00000000,-6.47453200,2.21456700,0.00286048
-6.06999970,0.00000000,-6.96665800,2.67593500,0.00184547
-5.98999970,0.00000000,-7.38188900,3.10654500,0.00098425
-5.90999970,0.00000000,-7.67408900,3.47564000,0.00036909
-5.82999970,0.00000000,-7.82787800,3.78321800,0.00003076
-5.74999970,0.00000000,-7.82787800,4.04466000,0.00003076
-5.66999970,0.00000000,-7.67408900,4.22920700,0.00036909
-5.58999969,0.00000000,-7.38188900,4.36761800,0.00098425
-5.50999969,0.00000000,-6.96665800,4.44451300,0.00184547
-5.42999969,0.00000000,-6.47453200,4.49065000,0.00286048
-5.34999969,0.00000000,-5.92089000,4.49065000,0.00396777
-5.26999969,0.00000000,-5.36724900,4.45989200,0.00501353
-5.18999969,0.00000000,-4.85974400,4.36761800,0.00599779
-5.10999969,0.00000000,-4.39837600,4.24458600,0.00685901
-5.02999969,0.00000000,-4.06003900,4.04466000,0.00756644
-4.94999969,0.00000000,-3.81397600,3.78321800,0.00808932
-4.86999969,0.00000000,-3.70632400,3.42950300,0.00848917
-4.78999968,0.00000000,-3.69094500,2.99889300,0.00873524
-4.70999968,0.00000000,-3.76783900,2.50676700,0.00891978
-4.62999968,0.00000000,-3.89087100,1.98388300,0.00898130
-4.54999968,0.00000000,-4.01390200,1.43024100,0.00898130
-4.46999968,0.00000000,-4.13693400,0.92273620,0.00891978
-4.38999968,0.00000000,-4.18307100,0.49212600,0.00873524
-4.30999968,0.00000000,-4.15231300,0.18454720,0.00848917
-4.22999968,0.00000000,-4.02928100,0.01537894,0.00808932
-4.14999968,0.00000000,-3.78321800,0.01537894,0.00756644
-4.06999967,0.00000000,-3.44488200,0.18454720,0.00685901
-3.98999967,0.00000000,-3.01427100,0.49212600,0.00599779
-3.90999967,0.00000000,-2.52214600,0.92273620,0.00501353
-3.82999967,0.00000000,-1.98388300,1.43024100,0.00396777
-3.74999967,0.00000000,-1.43024100,1.98388300,0.00286048
-3.66999967,0.00000000,-0.92273620,2.50676700,0.00184547
-3.58999967,0.00000000,-0.49212600,3.01427100,0.00098425
-3.50999967,-0.01537894,-0.18454720,3.44488200,0.00036909
-3.42999967,0.00000000,-0.01537894,3.78321800,0.00003076
-3.34999966,0.01537894,-0.01537894,4.02928100,0.00003076
-3.26999966,0.04613681,-0.18454720,4.19845000,0.00036909
-3.18999966,0.09227362,-0.49212600,4.27534400,0.00098425
-3.10999966,0.16916830,-0.92273620,4.29072300,0.00184547
-3.02999966,0.23068400,-1.43024100,4.25996500,0.00286048
-2.94999966,0.30757870,-1.98388300,4.18307100,0.00396777
-2.86999966,0.35371550,-2.50676700,4.10617600,0.00501353
-2.78999966,0.33833660,-2.99889300,4.04466000,0.00602854
-2.70999966,0.27682080,-3.42950300,3.98314500,0.00688976
-2.62999966,0.10765260,-3.78321800,3.93700800,0.00756644
-2.54999965,-0.13841040,-4.04466000,3.90625000,0.00805856
-2.46999965,-0.49212600,-4.24458600,3.87549200,0.00839690
-2.38999965,-0.92273620,-4.36761800,3.82935500,0.00855069
-2.30999965,-1.43024100,-4.45989200,3.78321800,0.00858145
-2.22999965,-1.96850400,-4.49065000,3.72170300,0.00851993
-2.14999965,-2.52214600,-4.49065000,3.64480800,0.00836614
-2.06999965,-3.01427100,-4.44451300,3.59867100,0.00821235
-1.98999965,-3.44488200,-4.36761800,3.59867100,0.00805856
-1.90999965,-3.73708200,-4.22920700,3.66018700,0.00793553
-1.82999964,-3.90625000,-4.04466000,3.81397600,0.00784326
-1.74999964,-3.90625000,-3.78321800,4.06003900,0.00784326
-1.66999964,-3.73708200,-3.47564000,4.41375400,0.00793553
-1.58999964,-3.44488200,-3.10654500,4.85974400,0.00805856
-1.50999964,-3.01427100,-2.67593500,5.38262700,0.00821235
-1.42999964,-2.52214600,-2.21456700,5.92089000,0.00836614
-1.34999964,-1.96850400,-1.73782000,6.47453200,0.00851993
-1.26999964,-1.43024100,-1.26107300,7.05893100,0.00858145
-1.18999964,-0.92273620,-0.83046260,7.68946800,0.00855069
-1.10999963,-0.49212600,-0.44598910,8.13545700,0.00839690
-1.02999963,-0.13841040,-0.12303150,8.12007800,0.00805856
-0.94999963,0.10765260,0.10765260,7.35113100,0.00756644
-0.86999963,0.27682080,0.26144190,5.59793300,0.00688976
-0.78999963,0.33833660,0.33833660,2.81434500,0.00602854
-0.70999963,0.35371550,0.33833660,-0.83046260,0.00501353
-0.62999963,0.30757870,0.30757870,-4.89050100,0.00396777
-0.54999963,0.23068400,0.23068400,-8.67371900,0.00286048
-0.46999963,0.15378940,0.15378940,-11.10359000,0.00184547
-0.38999963,0.07689468,0.09227362,-11.07283000,0.00098425
-0.30999962,0.01537894,0.03075787,-7.84325700,0.00036909
-0.22999962,-0.01537894,0.00000000,-0.93811510,0.00003076
-0.14999962,0.03075787,0.00000000,9.70410800,0.00003076
-0.06999962,0.12303150,0.03075787,23.86811000,0.00036909
0.01000038,0.27682080,0.09227362,40.98486000,0.00098425
0.09000038,0.49212600,0.15378940,60.27005000,0.00184547
0.17000038,0.70743110,0.23068400,80.90858000,0.00286048
0.25000038,0.90735720,0.30757870,102.08540000,0.00396777
0.33000038,0.98425190,0.35371550,123.20070000,0.00501353
0.41000039,0.84584150,0.33833660,143.83920000,0.00602854
0.49000039,0.55364170,0.27682080,163.77030000,0.00688976
0.57000039,0.16916830,0.10765260,182.91710000,0.00756644
0.65000039,-0.15378940,-0.13841040,201.31030000,0.00805856
0.73000039,-0.29219980,-0.49212600,218.99600000,0.00839690
0.81000039,-0.21530510,-0.92273620,235.98980000,0.00855069
0.89000039,0.09227362,-1.43024100,252.09150000,0.00858145
0.97000039,0.46136810,-1.96850400,266.94760000,0.00851993
1.05000039,0.66129420,-2.52214600,279.94270000,0.00836614
1.13000039,0.10765260,-3.02965000,290.29280000,0.00821235
1.21000040,-1.67630400,-3.46026100,297.16720000,0.00802781
1.29000040,-4.81360700,-3.76783900,299.75090000,0.00787402
1.37000040,-9.19660400,-3.92162900,297.36710000,0.00784326
1.45000040,-14.53309000,-3.87549200,289.63150000,0.00790477
1.53000040,-20.46936000,-3.66018700,276.52860000,0.00808932
1.61000040,-26.66708000,-3.24495600,258.39690000,0.00842766
1.69000040,-32.92630000,-2.69131400,236.02050000,0.00885827
1.77000040,-39.32394000,-2.04539800,210.47610000,0.00931964
1.85000040,-46.24446000,-1.36872500,183.05550000,0.00971949
1.93000041,-54.59522000,-0.81508360,155.12730000,0.00984252
2.01000041,-65.39124000,-0.47674700,128.04500000,0.00950418
2.09000041,-79.17077000,-0.29219980,102.90050000,0.00882751
2.17000041,-96.19524000,-0.13841040,80.55487000,0.00812008
2.25000041,-116.37240000,0.19992620,61.48499000,0.00765871
2.33000041,-139.30240000,0.84584150,45.78309000,0.00778174
2.41000041,-164.32390000,1.90698800,33.20312000,0.00858145
2.49000041,-190.62190000,3.32185000,23.26833000,0.01002707
2.57000041,-217.42740000,4.87512300,15.33280000,0.01168799
2.65000042,-244.06370000,6.15157400,8.62758300,0.01288755
2.73000042,-270.33100000,6.38225800,2.53752400,0.01230315
2.81000042,-296.15220000,4.87512300,-3.19881900,0.00870448
2.89000042,-321.25060000,1.30720900,-8.61220400,0.00163017
2.97000042,-345.34940000,-4.32148100,-13.51808000,-0.00907357
3.05000042,-368.17170000,-11.78026000,-17.62426000,-0.02303765
3.13000042,-389.42540000,-20.70005000,-20.62315000,-0.03961614
3.21000042,-408.81820000,-30.60408000,-22.31484000,-0.05807086
3.29000042,-426.13490000,-41.16941000,-22.62241000,-0.07772515
3.37000042,-441.20630000,-52.21149000,-21.71506000,-0.09824065
3.45000043,-453.95540000,-63.88410000,-20.02337000,-0.11964810
3.53000043,-464.56690000,-76.87930000,-18.05487000,-0.14290110
3.61000043,-473.24060000,-91.98141000,-16.07099000,-0.16907600
3.69000043,-479.99200000,-109.62110000,-14.21014000,-0.19884960
3.77000043,-484.77480000,-129.99810000,-12.53383000,-0.23262180
3.85000043,-487.43540000,-153.05120000,-11.02670000,-0.27042320
3.93000043,-487.85060000,-178.41100000,-9.58107800,-0.31185410
4.01000043,-485.86670000,-205.46260000,-8.10469900,-0.35599160
4.09000043,-481.42220000,-233.43690000,-6.53604800,-0.40163630
4.17000044,-474.59400000,-261.56490000,-4.84436500,-0.44734250
4.25000044,-465.45890000,-289.07790000,-3.06040800,-0.49160310
4.33000044,-454.41680000,-315.62190000,-1.30720900,-0.53321850
4.41000044,-441.99060000,-340.87410000,0.36909450,-0.57108150
4.49000044,-428.67250000,-364.49620000,1.93774600,-0.60417690
4.57000044,-414.89290000,-386.14970000,3.30647100,-0.63173600
4.65000044,-400.95960000,-405.58870000,4.47527100,-0.65329720
4.73000044,-387.02630000,-422.56700000,5.39800600,-0.66867620
4.81000044,-373.12370000,-436.97710000,6.10543700,-0.67802660
4.89000045,-359.09810000,-448.69580000,6.58218500,-0.68165600
4.97000045,-344.73420000,-457.72330000,6.90514200,-0.68014880
5.05000045,-329.67830000,-464.07480000,7.12044700,-0.67402800
5.13000045,-313.65340000,-467.88870000,7.27423700,-0.66397020
5.21000045,-296.90570000,-469.36510000,7.41264700,-0.65052900
5.29000045,-279.88130000,-468.50390000,7.58181600,-0.63404280
5.37000045,-263.08750000,-465.32050000,7.75098400,-0.61472680
5.45000045,-247.07800000,-459.76870000,7.93553100,-0.59267350
5.53000045,-232.25270000,-451.78700000,8.12007800,-0.56785180
5.61000045,-218.81150000,-441.37550000,8.27386800,-0.54032360
5.69000046,-206.69290000,-428.62630000,8.39689900,-0.51024230
5.77000046,-195.57390000,-413.69340000,8.44303500,-0.47791590
5.85000046,-184.71640000,-396.80730000,8.44303500,-0.44374390
5.93000046,-173.39750000,-378.35260000,8.39689900,-0.40834150
6.01000046,-161.43270000,-358.91360000,8.30462600,-0.37278540
6.09000046,-148.86810000,-339.10550000,8.16621500,-0.33818280
6.17000046,-135.93440000,-319.48200000,7.96628900,-0.30557950
6.25000046,-123.00070000,-300.44290000,7.70484700,-0.27571360
6.33000046,-110.45150000,-282.26500000,7.39726800,-0.24910800
6.41000047,-98.59436000,-264.99440000,7.04355200,-0.22579360
6.49000047,-87.56766000,-248.50820000,6.61294300,-0.20549340
6.57000047,-77.40218000,-232.57570000,6.16695300,-0.18753080
6.65000047,-67.71346000,-216.68920000,5.69020700,-0.17089070
6.73000047,-58.17851000,-200.49520000,5.21345900,-0.15461980
6.81000047,-48.81274000,-184.14740000,4.76747000,-0.13859500
6.89000047,-39.80069000,-167.98410000,4.38299700,-0.12309300
6.97000047,-31.37303000,-152.48220000,4.06003900,-0.10863680
7.05000047,-23.79121000,-138.11820000,3.79859700,-0.09581078
7.13000048,-17.30130000,-125.29220000,3.62942900,-0.08523007
7.21000048,-12.01095000,-114.20400000,3.50639700,-0.07717150
7.29000048,-7.93553100,-104.82280000,3.44488200,-0.07163509
7.37000048,-4.90588000,-96.87192000,3.41412400,-0.06825172
7.45000048,-2.58366100,-89.70534000,3.41412400,-0.06603716
7.53000048,-0.61515740,-82.67715000,3.44488200,-0.06403790
7.61000048,1.09190400,-75.63361000,3.50639700,-0.06185408
7.69000048,2.50676700,-68.66695000,3.62942900,-0.05930118
7.77000048,3.56791300,-61.97711000,3.79859700,-0.05640994
7.85000048,4.13693400,-55.88705000,4.06003900,-0.05342643
7.93000049,4.10617600,-50.70435000,4.38299700,-0.05056594
8.01000049,3.41412400,-46.59818000,4.76747000,-0.04807456
8.09000049,2.06077700,-43.61467000,5.21345900,-0.04613681
8.17000049,0.13841040,-41.61540000,5.69020700,-0.04472195
8.25000049,-2.09153500,-40.09289000,6.16695300,-0.04364542
8.33000049,-4.42913300,-38.58575000,6.62832200,-0.04256890
8.41000049,-6.73597400,-36.84793000,7.04355200,-0.04152313
8.49000049,-8.90440500,-34.83329000,7.41264700,-0.04050812
8.57000049,-10.87291000,-32.57259000,7.72022600,-0.03961614
8.65000050,-12.61073000,-30.18885000,7.95091000,-0.03890871
8.73000050,-14.14862000,-27.85125000,8.12007800,-0.03844734
8.81000050,-15.50197000,-25.69820000,8.21235200,-0.03829355
8.89000050,-16.71690000,-23.82197000,8.22773100,-0.03841658
8.97000050,-17.80881000,-22.22256000,8.21235200,-0.03878568
9.05000050,-18.83920000,-20.71543000,8.13545700,-0.03918553
9.13000050,-19.82345000,-19.10064000,8.05856200,-0.03949311
9.21000050,-20.82308000,-17.28592000,7.96628900,-0.03961614
9.29000050,-21.86885000,-15.22515000,7.88939400,-0.03958539
9.37000051,-22.96075000,-12.96444000,7.84325700,-0.03937008
9.45000051,-24.11417000,-10.54995000,7.84325700,-0.03903174
9.53000051,-25.28297000,-8.05856200,7.88939400,-0.03860113
9.61000051,-26.45177000,-5.58255400,7.96628900,-0.03810900
9.69000051,-27.55905000,-3.16806100,8.05856200,-0.03758612
9.77000051,-28.57406000,-0.86122040,8.13545700,-0.03700172
9.85000051,-29.46604000,1.39948300,8.21235200,-0.03632505
9.93000051,-30.18885000,3.64480800,8.24311000,-0.03546383
10.01000051,-30.74249000,5.92089000,8.21235200,-0.03447958
10.09000051,-31.12697000,8.22773100,8.12007800,-0.03331078
10.17000052,-31.34227000,10.58071000,7.96628900,-0.03204970
10.25000052,-31.38841000,12.96444000,7.70484700,-0.03069636
10.33000052,-31.28075000,15.37894000,7.36651000,-0.02931225
10.41000052,-31.05007000,17.77805000,6.95127900,-0.02786663
10.49000052,-30.68098000,20.10027000,6.45915300,-0.02645177
10.57000052,-30.17347000,22.28408000,5.93626900,-0.02500615
10.65000052,-29.48142000,24.26796000,5.38262700,-0.02349902
10.73000052,-28.58944000,25.91351000,4.87512300,-0.02189961
10.81000052,-27.45140000,27.11306000,4.42913300,-0.02020792
10.89000053,-26.05192000,27.72822000,4.10617600,-0.01839321
10.97000053,-24.43713000,27.71284000,3.93700800,-0.01657849
11.05000053,-22.59166000,27.02079000,3.93700800,-0.01479454
11.13000053,-20.57702000,25.66744000,4.10617600,-0.01307210
11.21000053,-18.42397000,23.71432000,4.42913300,-0.01147269
11.29000053,-16.17864000,21.23831000,4.87512300,-0.00999631
11.37000053,-13.85642000,18.37783000,5.38262700,-0.00858145
11.45000053,-11.47269000,15.24053000,5.93626900,-0.00722810
11.53000053,-9.01205700,11.93405000,6.45915300,-0.00581324
11.61000053,-6.45915300,8.53530900,6.93590000,-0.00427534
11.69000054,-3.87549200,5.09042800,7.35113100,-0.00264518
