Time,Channel A,Channel B,Channel C,Channel D
(ns),(mV),(mV),(mV),(V)

-15.21025683,4.04466000,-3.79859700,3.89087100,0.00784326
-15.13025682,4.22920700,-3.49101900,3.66018700,0.00784326
-15.05025682,4.36761800,-3.10654500,3.26033400,0.00787402
-14.97025682,4.44451300,-2.67593500,2.69131400,0.00790477
-14.89025682,4.49065000,-2.21456700,2.04539800,0.00790477
-14.81025682,4.49065000,-1.73782000,1.36872500,0.00790477
-14.73025682,4.44451300,-1.27645200,0.73818890,0.00790477
-14.65025682,4.36761800,-0.83046260,0.24606300,0.00787402
-14.57025682,4.22920700,-0.46136810,-0.04613681,0.00784326
-14.49025682,4.04466000,-0.13841040,-0.07689468,0.00784326
-14.41025681,3.78321800,0.12303150,0.15378940,0.00784326
-14.33025681,3.47564000,0.30757870,0.66129420,0.00784326
-14.25025681,3.10654500,0.43061020,1.41486200,0.00787402
-14.17025681,2.67593500,0.50750490,2.35297700,0.00790477
-14.09025681,2.21456700,0.53826270,3.41412400,0.00790477
-14.01025681,1.73782000,0.53826270,4.49065000,0.00790477
-13.93025681,1.26107300,0.50750490,5.53641700,0.00790477
-13.85025681,0.83046260,0.43061020,6.44377400,0.00787402
-13.77025681,0.44598910,0.29219980,7.18196300,0.00784326
-13.69025680,0.12303150,0.10765260,7.67408900,0.00784326
-13.61025680,-0.10765260,-0.12303150,7.95091000,0.00784326
-13.53025680,-0.26144190,-0.41523130,7.98166800,0.00784326
-13.45025680,-0.33833660,-0.73818890,7.81250000,0.00787402
-13.37025680,-0.33833660,-1.10728300,7.47416300,0.00790477
-13.29025680,-0.30757870,-1.50713600,7.01279500,0.00790477
-13.21025680,-0.23068400,-1.90698800,6.47453200,0.00790477
-13.13025680,-0.16916830,-2.33759800,5.89013200,0.00790477
-13.05025680,-0.09227362,-2.76820900,5.30573300,0.00787402
-12.97025680,-0.04613681,-3.21419800,4.72133400,0.00784326
-12.89025679,-0.01537894,-3.67556500,4.18307100,0.00784326
-12.81025679,0.00000000,-4.16769200,3.66018700,0.00784326
-12.73025679,0.01537894,-4.67519700,3.16806100,0.00784326
-12.65025679,0.00000000,-5.19808000,2.66055600,0.00787402
-12.57025679,0.00000000,-5.72096400,2.16843000,0.00790477
-12.49025679,0.00000000,-6.22846900,1.67630400,0.00790477
-12.41025679,0.00000000,-6.70521600,1.19955700,0.00790477
-12.33025679,0.00000000,-7.13582600,0.76894680,0.00790477
-12.25025679,0.00000000,-7.47416300,0.39985230,0.00787402
-12.17025678,-0.01537894,-7.72022600,0.13841040,0.00784326
-12.09025678,0.00000000,-7.82787800,0.01537894,0.00784326
-12.01025678,0.01537894,-7.81250000,0.03075787,0.00784326
-11.93025678,0.04613681,-7.65871000,0.19992620,0.00784326
-11.85025678,0.09227362,-7.36651000,0.50750490,0.00787402
-11.77025678,0.16916830,-6.96665800,0.92273620,0.00790477
-11.69025678,0.23068400,-6.47453200,1.43024100,0.00790477
-11.61025678,0.30757870,-5.92089000,1.98388300,0.00790477
-11.53025678,0.35371550,-5.36724900,2.50676700,0.00787402
-11.45025677,0.33833660,-4.85974400,3.01427100,0.00787402
-11.37025677,0.27682080,-4.39837600,3.44488200,0.00784326
-11.29025677,0.10765260,-4.06003900,3.78321800,0.00784326
-11.21025677,-0.13841040,-3.81397600,4.02928100,0.00787402
-11.13025677,-0.49212600,-3.70632400,4.19845000,0.00793553
-11.05025677,-0.92273620,-3.69094500,4.27534400,0.00805856
-10.97025677,-1.43024100,-3.76783900,4.29072300,0.00821235
-10.89025677,-1.96850400,-3.89087100,4.25996500,0.00836614
-10.81025677,-2.52214600,-4.01390200,4.18307100,0.00851993
-10.73025677,-3.01427100,-4.12155500,4.10617600,0.00858145
-10.65025676,-3.44488200,-4.18307100,4.02928100,0.00855069
-10.57025676,-3.73708200,-4.15231300,3.96776600,0.00839690
-10.49025676,-3.90625000,-4.01390200,3.93700800,0.00805856
-10.41025676,-3.90625000,-3.79859700,3.92162900,0.00756644
-10.33025676,-3.73708200,-3.49101900,3.92162900,0.00688976
-10.25025676,-3.44488200,-3.10654500,3.93700800,0.00602854
-10.17025676,-3.01427100,-2.67593500,3.93700800,0.00501353
-10.09025676,-2.52214600,-2.21456700,3.95238700,0.00396777
-10.01025676,-1.96850400,-1.73782000,3.95238700,0.00286048
-9.93025675,-1.43024100,-1.26107300,3.95238700,0.00184547
-9.85025675,-0.92273620,-0.83046260,3.93700800,0.00098425
-9.77025675,-0.49212600,-0.44598910,3.92162900,0.00036909
-9.69025675,-0.13841040,-0.12303150,3.92162900,0.00003076
-9.61025675,0.10765260,0.10765260,3.92162900,0.00003076
-9.53025675,0.27682080,0.26144190,3.92162900,0.00036909
-9.45025675,0.33833660,0.33833660,3.93700800,0.00098425
-9.37025675,0.35371550,0.33833660,3.95238700,0.00184547
-9.29025675,0.30757870,0.30757870,3.95238700,0.00286048
-9.21025674,0.23068400,0.23068400,3.95238700,0.00396777
-9.13025674,0.16916830,0.16916830,3.93700800,0.00501353
-9.05025674,0.09227362,0.09227362,3.93700800,0.00602854
-8.97025674,0.04613681,0.04613681,3.92162900,0.00688976
-8.89025674,0.01537894,0.01537894,3.92162900,0.00756644
-8.81025674,0.00000000,0.00000000,3.93700800,0.00805856
-8.73025674,-0.01537894,-0.01537894,3.96776600,0.00839690
-8.65025674,0.00000000,0.00000000,4.02928100,0.00855069
-8.57025674,0.00000000,0.00000000,4.10617600,0.00858145
-8.49025674,0.00000000,0.00000000,4.18307100,0.00851993
-8.41025673,0.00000000,0.00000000,4.25996500,0.00836614
-8.33025673,0.00000000,0.00000000,4.29072300,0.00821235
-8.25025673,0.00000000,0.00000000,4.27534400,0.00805856
-8.17025673,-0.01537894,0.00000000,4.19845000,0.00793553
-8.09025673,0.00000000,0.00000000,4.02928100,0.00787402
-8.01025673,0.01537894,0.00000000,3.78321800,0.00784326
-7.93025673,0.04613681,0.00000000,3.44488200,0.00784326
-7.85025673,0.09227362,0.00000000,3.01427100,0.00787402
-7.77025673,0.16916830,0.00000000,2.50676700,0.00787402
-7.69025672,0.23068400,0.00000000,1.98388300,0.00790477
-7.61025672,0.30757870,0.00000000,1.43024100,0.00790477
-7.53025672,0.35371550,0.00000000,0.92273620,0.00790477
-7.45025672,0.33833660,0.00000000,0.49212600,0.00787402
-7.37025672,0.27682080,-0.01537894,0.18454720,0.00784326
-7.29025672,0.10765260,0.00000000,0.01537894,0.00784326
-7.21025672,-0.13841040,0.01537894,0.01537894,0.00784326
-7.13025672,-0.49212600,0.04613681,0.18454720,0.00784326
-7.05025672,-0.92273620,0.09227362,0.49212600,0.00787402
-6.97025672,-1.43024100,0.16916830,0.92273620,0.00790477
-6.89025671,-1.96850400,0.23068400,1.43024100,0.00790477
-6.81025671,-2.52214600,0.30757870,1.98388300,0.00790477
-6.73025671,-3.01427100,0.33833660,2.50676700,0.00790477
-6.65025671,-3.42950300,0.33833660,3.01427100,0.00787402
-6.57025671,-3.73708200,0.26144190,3.44488200,0.00784326
-6.49025671,-3.89087100,0.10765260,3.78321800,0.00784326
-6.41025671,-3.90625000,-0.12303150,4.02928100,0.00784326
-6.33025671,-3.78321800,-0.44598910,4.19845000,0.00784326
-6.25025671,-3.53715500,-0.83046260,4.27534400,0.00787402
-6.17025670,-3.18344000,-1.26107300,4.29072300,0.00790477
-6.09025670,-2.75283000,-1.73782000,4.25996500,0.00790477
-6.01025670,-2.27608300,-2.21456700,4.18307100,0.00790477
-5.93025670,-1.78395700,-2.67593500,4.10617600,0.00790477
-5.85025670,-1.26107300,-3.10654500,4.02928100,0.00787402
-5.77025670,-0.75356790,-3.49101900,3.96776600,0.00784326
-5.69025670,-0.24606300,-3.79859700,3.93700800,0.00784326
-5.61025670,0.24606300,-4.02928100,3.92162900,0.00784326
-5.53025670,0.75356790,-4.18307100,3.92162900,0.00784326
-5.45025669,1.26107300,-4.27534400,3.93700800,0.00787402
-5.37025669,1.78395700,-4.29072300,3.93700800,0.00790477
-5.29025669,2.27608300,-4.25996500,3.95238700,0.00790477
-5.21025669,2.75283000,-4.18307100,3.95238700,0.00790477
-5.13025669,3.18344000,-4.10617600,3.93700800,0.00790477
-5.05025669,3.53715500,-4.02928100,3.93700800,0.00787402
-4.97025669,3.78321800,-3.96776600,3.92162900,0.00784326
-4.89025669,3.90625000,-3.92162900,3.92162900,0.00784326
-4.81025669,3.89087100,-3.92162900,3.93700800,0.00784326
-4.73025669,3.73708200,-3.96776600,3.96776600,0.00784326
-4.65025668,3.42950300,-4.02928100,4.02928100,0.00787402
-4.57025668,3.01427100,-4.10617600,4.10617600,0.00790477
-4.49025668,2.52214600,-4.18307100,4.18307100,0.00790477
-4.41025668,1.96850400,-4.25996500,4.25996500,0.00790477
-4.33025668,1.43024100,-4.29072300,4.29072300,0.00790477
-4.25025668,0.92273620,-4.25996500,4.27534400,0.00787402
-4.17025668,0.49212600,-4.18307100,4.19845000,0.00784326
-4.09025668,0.13841040,-4.02928100,4.02928100,0.00784326
-4.01025668,-0.10765260,-3.79859700,3.78321800,0.00784326
-3.93025667,-0.27682080,-3.52177600,3.44488200,0.00784326
-3.85025667,-0.33833660,-3.19881900,3.01427100,0.00787402
-3.77025667,-0.35371550,-2.84510300,2.50676700,0.00790477
-3.69025667,-0.30757870,-2.44525100,1.98388300,0.00790477
-3.61025667,-0.23068400,-2.04539800,1.43024100,0.00790477
-3.53025667,-0.16916830,-1.61478800,0.92273620,0.00790477
-3.45025667,-0.09227362,-1.18417800,0.49212600,0.00787402
-3.37025667,-0.04613681,-0.72281000,0.18454720,0.00784326
-3.29025667,-0.01537894,-0.24606300,0.01537894,0.00784326
-3.21025666,0.00000000,0.26144190,0.01537894,0.00784326
-3.13025666,0.01537894,0.78432570,0.18454720,0.00784326
-3.05025666,0.00000000,1.35334600,0.49212600,0.00787402
-2.97025666,0.00000000,1.93774600,0.92273620,0.00790477
-2.89025666,0.00000000,2.52214600,1.43024100,0.00790477
-2.81025666,0.00000000,3.06040800,1.98388300,0.00790477
-2.73025666,0.00000000,3.53715500,2.50676700,0.00790477
-2.65025666,0.00000000,3.87549200,3.01427100,0.00787402
-2.57025666,0.01537894,4.06003900,3.44488200,0.00784326
-2.49025666,0.00000000,4.02928100,3.78321800,0.00784326
-2.41025665,-0.01537894,3.75246000,4.02928100,0.00784326
-2.33025665,-0.04613681,3.24495600,4.19845000,0.00784326
-2.25025665,-0.09227362,2.50676700,4.27534400,0.00787402
-2.17025665,-0.16916830,1.58403000,4.29072300,0.00790477
-2.09025665,-0.23068400,0.53826270,4.25996500,0.00790477
-2.01025665,-0.30757870,-0.53826270,4.18307100,0.00790477
-1.93025665,-0.35371550,-1.58403000,4.12155500,0.00787402
-1.85025665,-0.33833660,-2.52214600,4.07541800,0.00787402
-1.77025665,-0.27682080,-3.26033400,4.04466000,0.00784326
-1.69025664,-0.10765260,-3.76783900,3.98314500,0.00784326
-1.61025664,0.13841040,-4.01390200,3.84473400,0.00787402
-1.53025664,0.49212600,-4.01390200,3.56791300,0.00793553
-1.45025664,0.92273620,-3.78321800,3.16806100,0.00805856
-1.37025664,1.43024100,-3.36798700,2.64517700,0.00821235
-1.29025664,1.96850400,-2.82972400,2.06077700,0.00836614
-1.21025664,2.52214600,-2.21456700,1.52251500,0.00851993
-1.13025664,3.01427100,-1.59940900,1.33796700,0.00858145
-1.05025664,3.42950300,-1.03038900,1.75319900,0.00855069
-0.97025663,3.73708200,-0.53826270,2.59904000,0.00836614
-0.89025663,3.89087100,-0.15378940,3.53715500,0.00805856
-0.81025663,3.90625000,0.12303150,4.16769200,0.00759720
-0.73025663,3.78321800,0.32295760,4.12155500,0.00698204
-0.65025663,3.53715500,0.44598910,3.16806100,0.00621309
-0.57025663,3.18344000,0.50750490,1.43024100,0.00535187
-0.49025663,2.75283000,0.53826270,-0.61515740,0.00442913
-0.41025663,2.27608300,0.53826270,-2.06077700,0.00347564
-0.33025663,1.76857800,0.50750490,-1.58403000,0.00255290
-0.25025663,1.21493600,0.43061020,2.33759800,0.00166093
-0.17025662,0.67667320,0.30757870,11.05746000,0.00092274
-0.09025662,0.19992620,0.12303150,25.62131000,0.00027682
-0.01025662,-0.16916830,-0.13841040,46.61356000,-0.00024606
0.06974338,-0.41523130,-0.46136810,74.00344000,-0.00061516
0.14974338,-0.50750490,-0.83046260,107.05280000,-0.00086122
0.22974338,-0.47674700,-1.27645200,144.36210000,-0.00101501
0.30974338,-0.38447340,-1.73782000,183.97820000,-0.00107653
0.38974338,-0.32295760,-2.21456700,223.56360000,-0.00107653
0.46974338,-0.52288380,-2.67593500,260.67300000,-0.00101501
0.54974339,-1.13804100,-3.10654500,292.95340000,-0.00086122
0.62974339,-2.13767200,-3.49101900,318.48240000,-0.00061516
0.70974339,-3.32185000,-3.79859700,335.86060000,-0.00024606
0.78974339,-4.47527100,-4.01390200,344.39590000,0.00027682
0.86974339,-5.35187000,-4.15231300,344.14980000,0.00092274
0.94974339,-5.79785900,-4.18307100,335.84520000,0.00166093
1.02974339,-5.85937500,-4.12155500,320.75850000,0.00255290
1.10974339,-5.76710100,-4.01390200,300.58130000,0.00347564
1.18974339,-5.99778500,-3.89087100,277.05150000,0.00442913
1.26974339,-7.45878400,-3.78321800,251.89160000,0.00532111
1.34974340,-11.05746000,-3.75246000,226.57790000,0.00609006
1.42974340,-17.20903000,-3.81397600,202.17150000,0.00676673
1.50974340,-26.02116000,-3.89087100,179.36450000,0.00747416
1.58974340,-37.32468000,-3.95238700,158.41840000,0.00827387
1.66974340,-50.68897000,-3.93700800,139.25630000,0.00922736
1.74974340,-65.59116000,-3.81397600,121.55510000,0.01045768
1.82974340,-81.47760000,-3.58329200,104.89970000,0.01184178
1.90974340,-97.97920000,-3.32185000,88.93639000,0.01325664
1.98974340,-114.97290000,-3.12192400,73.38828000,0.01445620
2.06974341,-132.85860000,-3.29109200,58.20927000,0.01491757
2.14974341,-152.18990000,-4.04466000,43.55315000,0.01417938
2.22974341,-173.19760000,-5.33649100,29.80438000,0.01224163
2.30974341,-195.92760000,-6.98203700,17.36282000,0.00944267
2.38974341,-220.19560000,-8.68909800,6.65908000,0.00621309
2.46974341,-245.67850000,-10.18086000,-1.98388300,0.00301427
2.54974341,-271.80730000,-11.28814000,-8.44303500,0.00018455
2.62974341,-297.98230000,-11.99557000,-12.81065000,-0.00221457
2.70974341,-323.55740000,-12.56459000,-15.39431000,-0.00458292
2.78974342,-348.02530000,-13.54884000,-16.85531000,-0.00778174
2.86974342,-371.17060000,-15.97871000,-17.79343000,-0.01337968
2.94974342,-392.91640000,-20.88459000,-18.50086000,-0.02306841
3.02974342,-412.98600000,-28.86626000,-19.10064000,-0.03786294
3.10974342,-431.08700000,-40.18516000,-19.51587000,-0.05828617
3.18974342,-446.94260000,-54.73363000,-19.60814000,-0.08427657
3.26974342,-460.33770000,-72.11183000,-19.20829000,-0.11528050
3.34974342,-471.07220000,-91.68922000,-18.14714000,-0.15028300
3.42974342,-479.05390000,-112.77370000,-16.37857000,-0.18808440
3.50974342,-484.28270000,-134.68870000,-13.97945000,-0.22733140
3.58974343,-486.88170000,-156.97280000,-11.19587000,-0.26697840
3.66974343,-487.18930000,-179.64140000,-8.33538300,-0.30650220
3.74974343,-485.58990000,-202.83280000,-5.58255400,-0.34559550
3.82974343,-482.31420000,-226.53170000,-3.09116600,-0.38391980
3.90974343,-477.54670000,-250.64590000,-0.93811510,-0.42116760
3.98974343,-471.31820000,-274.99080000,0.84584150,-0.45706200
4.06974343,-463.62880000,-299.30480000,2.27608300,-0.49135700
4.14974343,-454.41680000,-323.20370000,3.38336600,-0.52371430
4.22974343,-443.57460000,-346.27210000,4.27534400,-0.55370320
4.30974344,-431.10230000,-368.03330000,4.99815400,-0.58089320
4.38974344,-416.92300000,-388.05670000,5.61331200,-0.60473050
4.46974344,-401.22110000,-406.14230000,6.16695300,-0.62481550
4.54974344,-384.44260000,-422.13640000,6.67445900,-0.64074800
4.62974344,-367.11060000,-435.73140000,7.16658400,-0.65194390
4.70974344,-349.76310000,-446.66580000,7.62795300,-0.65800320
4.78974344,-332.89250000,-454.73970000,8.04318300,-0.65852610
4.86974344,-316.75990000,-459.76870000,8.36614100,-0.65342030
4.94974344,-301.47330000,-461.72180000,8.61220400,-0.64277800
5.02974345,-286.92480000,-460.62990000,8.73523500,-0.62699930
5.10974345,-272.82230000,-456.69290000,8.75061400,-0.60672980
5.18974345,-258.56610000,-450.15680000,8.68909800,-0.58276950
5.26974345,-243.63310000,-441.46770000,8.56606700,-0.55610230
5.34974345,-228.05420000,-431.08700000,8.39689900,-0.52771280
5.42974345,-212.06020000,-419.41430000,8.19697300,-0.49861590
5.50974345,-196.09680000,-406.72670000,7.96628900,-0.46942670
5.58974345,-180.64100000,-393.25480000,7.70484700,-0.44069880
5.66974345,-166.10790000,-379.02920000,7.39726800,-0.41264760
5.74974345,-152.78970000,-364.08090000,7.02817400,-0.38521160
5.82974346,-140.71730000,-348.34830000,6.61294300,-0.35826770
5.90974346,-129.72130000,-331.78520000,6.16695300,-0.33156990
5.98974346,-119.21750000,-314.26860000,5.69020700,-0.30468750
6.06974346,-108.60600000,-295.86000000,5.21345900,-0.27752830
6.14974346,-97.76390000,-277.00540000,4.76747000,-0.25049210
6.22974346,-86.78334000,-258.21230000,4.36761800,-0.22425570
6.30974346,-75.91043000,-240.08060000,4.04466000,-0.19971090
6.38974346,-65.43737000,-223.10220000,3.81397600,-0.17753440
6.46974346,-55.70251000,-207.63100000,3.66018700,-0.15834150
6.54974347,-46.92113000,-193.77460000,3.59867100,-0.14231670
6.62974347,-39.20091000,-181.42530000,3.59867100,-0.12930610
6.70974347,-32.46494000,-170.24480000,3.64480800,-0.11878690
6.78974347,-26.39025000,-159.52570000,3.72170300,-0.10962110
6.86974347,-20.65391000,-148.66820000,3.78321800,-0.10079360
6.94974347,-15.22515000,-137.54920000,3.84473400,-0.09196604
7.02974347,-10.22699000,-126.29180000,3.89087100,-0.08316929
7.10974347,-5.82861700,-115.20360000,3.90625000,-0.07464936
7.18974347,-2.24532500,-104.63830000,3.92162900,-0.06680610
7.26974348,0.38447340,-94.93417000,3.93700800,-0.06007013
7.34974348,1.95312500,-86.36810000,3.93700800,-0.05477977
7.42974348,2.50676700,-78.97084000,3.95238700,-0.05099655
7.50974348,2.16843000,-72.63471000,3.95238700,-0.04859744
7.58974348,1.29183100,-66.89837000,3.95238700,-0.04693652
7.66974348,0.18454720,-61.30044000,3.95238700,-0.04542938
7.74974348,-0.98425190,-55.77940000,3.93700800,-0.04382997
7.82974348,-2.16843000,-50.42753000,3.92162900,-0.04207677
7.90974348,-3.33722900,-45.42937000,3.92162900,-0.04016978
7.98974348,-4.53678600,-41.04638000,3.92162900,-0.03829355
8.06974349,-5.82861700,-37.50923000,3.92162900,-0.03660187
8.14974349,-7.27423700,-34.95632000,3.93700800,-0.03521777
8.22974349,-8.88902600,-33.34153000,3.95238700,-0.03423351
8.30974349,-10.67298000,-32.54183000,3.95238700,-0.03361836
8.38974349,-12.50307000,-32.11122000,3.95238700,-0.03318775
8.46974349,-14.31779000,-31.63447000,3.95238700,-0.03278789
8.54974349,-16.04023000,-30.88090000,3.93700800,-0.03238804
8.62974349,-17.62426000,-29.75824000,3.92162900,-0.03195743
8.70974349,-19.00837000,-28.28186000,3.92162900,-0.03155758
8.78974350,-20.14641000,-26.59018000,3.92162900,-0.03125000
8.86974350,-21.03838000,-24.79084000,3.92162900,-0.03106545
8.94974350,-21.66892000,-23.02227000,3.93700800,-0.03106545
9.02974350,-22.05339000,-21.39210000,3.95238700,-0.03121924
9.10974350,-22.23794000,-19.88497000,3.95238700,-0.03149606
9.18974350,-22.31484000,-18.37783000,3.95238700,-0.03174213
9.26974350,-22.36097000,-16.68615000,3.95238700,-0.03192667
9.34974350,-22.46863000,-14.68688000,3.93700800,-0.03192667
9.42974350,-22.73007000,-12.27239000,3.92162900,-0.03180364
9.50974351,-23.20681000,-9.42728800,3.92162900,-0.03155758
9.58974351,-23.92962000,-6.15157400,3.92162900,-0.03118848
9.66974351,-24.89850000,-2.46063000,3.92162900,-0.03081939
9.74974351,-26.06730000,1.53789400,3.93700800,-0.03041954
9.82974351,-27.35913000,5.72096400,3.95238700,-0.02998893
9.90974351,-28.68172000,9.96555000,3.95238700,-0.02955832
9.98974351,-29.89665000,14.11786000,3.95238700,-0.02900467
10.06974351,-30.89628000,18.02411000,3.95238700,-0.02826649
10.14974351,-31.55758000,21.51513000,3.93700800,-0.02725148
10.22974351,-31.81902000,24.42175000,3.92162900,-0.02599040
10.30974352,-31.63447000,26.63632000,3.92162900,-0.02442175
10.38974352,-31.00393000,28.09732000,3.92162900,-0.02260704
10.46974352,-29.97355000,28.80475000,3.92162900,-0.02054626
10.54974352,-28.57406000,28.80475000,3.93700800,-0.01833169
10.62974352,-26.88238000,28.20497000,3.95238700,-0.01602485
10.70974352,-24.96001000,27.08231000,3.95238700,-0.01362574
10.78974352,-22.83772000,25.59055000,3.95238700,-0.01116511
10.86974352,-20.56164000,23.79121000,3.95238700,-0.00867372
10.94974352,-18.13177000,21.74582000,3.93700800,-0.00612082
11.02974353,-15.60962000,19.48511000,3.92162900,-0.00362943
11.10974353,-13.05672000,17.00910000,3.92162900,-0.00116880
11.18974353,-10.48843000,14.33317000,3.92162900,0.00113804
11.26974353,-7.96628900,11.45731000,3.92162900,0.00332185
11.34974353,-5.52103800,8.41227800,3.93700800,0.00532111
11.42974353,-3.15268200,5.22883800,3.95238700,0.00713583
11.50974353,-0.86122040,1.93774600,3.95238700,0.00876599
11.58974353,1.39948300,-1.39948300,3.95238700,0.01027313
11.66974353,3.66018700,-4.73671200,3.95238700,0.01168799
11.74974353,5.95164800,-8.04318300,3.93700800,0.01297982
11.82974354,8.27386800,-11.22662000,3.92162900,0.01417938
