Time,Channel A,Channel B,Channel C,Channel D
(ns),(mV),(mV),(mV),(V)

-15.22318883,-0.13841040,-4.04466000,3.92162900,0.00756644
-15.14318882,-0.49212600,-4.36761800,3.92162900,0.00695128
-15.06318882,-0.92273620,-4.76747000,3.93700800,0.00621309
-14.98318882,-1.43024100,-5.21345900,3.95238700,0.00535187
-14.90318882,-1.96850400,-5.69020700,3.95238700,0.00442913
-14.82318882,-2.52214600,-6.16695300,3.95238700,0.00347564
-14.74318882,-3.01427100,-6.61294300,3.93700800,0.00255290
-14.66318882,-3.44488200,-7.04355200,3.93700800,0.00166093
-14.58318882,-3.73708200,-7.39726800,3.92162900,0.00092274
-14.50318882,-3.90625000,-7.70484700,3.92162900,0.00027682
-14.42318881,-3.90625000,-7.96628900,3.93700800,-0.00024606
-14.34318881,-3.73708200,-8.16621500,3.96776600,-0.00061516
-14.26318881,-3.44488200,-8.30462600,4.02928100,-0.00086122
-14.18318881,-3.01427100,-8.39689900,4.10617600,-0.00101501
-14.10318881,-2.52214600,-8.44303500,4.18307100,-0.00107653
-14.02318881,-1.96850400,-8.44303500,4.25996500,-0.00107653
-13.94318881,-1.43024100,-8.39689900,4.29072300,-0.00101501
-13.86318881,-0.92273620,-8.28924700,4.27534400,-0.00086122
-13.78318881,-0.49212600,-8.15083600,4.19845000,-0.00061516
-13.70318880,-0.13841040,-7.95091000,4.02928100,-0.00024606
-13.62318880,0.10765260,-7.72022600,3.78321800,0.00027682
-13.54318880,0.27682080,-7.44340500,3.44488200,0.00092274
-13.46318880,0.33833660,-7.13582600,3.01427100,0.00166093
-13.38318880,0.35371550,-6.78211100,2.50676700,0.00255290
-13.30318880,0.30757870,-6.39763700,1.98388300,0.00347564
-13.22318880,0.23068400,-5.99778500,1.43024100,0.00442913
-13.14318880,0.16916830,-5.56717500,0.92273620,0.00535187
-13.06318880,0.09227362,-5.10580700,0.49212600,0.00621309
-12.98318880,0.04613681,-4.64443900,0.18454720,0.00698204
-12.90318879,0.01537894,-4.16769200,0.01537894,0.00759720
-12.82318879,0.00000000,-3.67556500,0.01537894,0.00805856
-12.74318879,-0.01537894,-3.18344000,0.18454720,0.00836614
-12.66318879,0.00000000,-2.67593500,0.49212600,0.00855069
-12.58318879,0.00000000,-2.16843000,0.92273620,0.00858145
-12.50318879,0.00000000,-1.67630400,1.43024100,0.00851993
-12.42318879,0.00000000,-1.19955700,1.98388300,0.00836614
-12.34318879,0.00000000,-0.76894680,2.50676700,0.00821235
-12.26318879,0.00000000,-0.39985230,3.01427100,0.00805856
-12.18318878,0.00000000,-0.13841040,3.44488200,0.00793553
-12.10318878,0.00000000,-0.01537894,3.78321800,0.00784326
-12.02318878,0.00000000,-0.03075787,4.02928100,0.00784326
-11.94318878,0.00000000,-0.19992620,4.19845000,0.00793553
-11.86318878,0.00000000,-0.50750490,4.27534400,0.00805856
-11.78318878,0.00000000,-0.92273620,4.29072300,0.00821235
-11.70318878,0.00000000,-1.43024100,4.25996500,0.00836614
-11.62318878,0.00000000,-1.98388300,4.18307100,0.00851993
-11.54318878,0.00000000,-2.50676700,4.10617600,0.00858145
-11.46318877,0.00000000,-3.01427100,4.02928100,0.00855069
-11.38318877,0.00000000,-3.44488200,3.96776600,0.00836614
-11.30318877,0.00000000,-3.78321800,3.93700800,0.00805856
-11.22318877,0.00000000,-4.02928100,3.92162900,0.00759720
-11.14318877,0.00000000,-4.19845000,3.92162900,0.00698204
-11.06318877,0.00000000,-4.27534400,3.93700800,0.00621309
-10.98318877,0.00000000,-4.29072300,3.93700800,0.00535187
-10.90318877,0.00000000,-4.25996500,3.95238700,0.00442913
-10.82318877,0.00000000,-4.18307100,3.95238700,0.00347564
-10.74318877,0.00000000,-4.10617600,3.93700800,0.00255290
-10.66318876,0.00000000,-4.02928100,3.93700800,0.00166093
-10.58318876,0.01537894,-3.96776600,3.92162900,0.00092274
-10.50318876,0.00000000,-3.93700800,3.92162900,0.00027682
-10.42318876,-0.01537894,-3.92162900,3.93700800,-0.00024606
-10.34318876,-0.04613681,-3.92162900,3.96776600,-0.00061516
-10.26318876,-0.09227362,-3.93700800,4.02928100,-0.00086122
-10.18318876,-0.16916830,-3.93700800,4.10617600,-0.00101501
-10.10318876,-0.23068400,-3.95238700,4.18307100,-0.00107653
-10.02318876,-0.30757870,-3.95238700,4.25996500,-0.00107653
-9.94318875,-0.35371550,-3.93700800,4.29072300,-0.00101501
-9.86318875,-0.33833660,-3.92162900,4.27534400,-0.00086122
-9.78318875,-0.27682080,-3.90625000,4.18307100,-0.00061516
-9.70318875,-0.10765260,-3.90625000,4.02928100,-0.00024606
-9.62318875,0.13841040,-3.93700800,3.79859700,0.00027682
-9.54318875,0.49212600,-4.01390200,3.49101900,0.00092274
-9.46318875,0.92273620,-4.12155500,3.10654500,0.00166093
-9.38318875,1.43024100,-4.27534400,2.67593500,0.00255290
-9.30318875,1.96850400,-4.42913300,2.21456700,0.00347564
-9.22318874,2.52214600,-4.56754400,1.73782000,0.00442913
-9.14318874,3.01427100,-4.62906000,1.27645200,0.00535187
-9.06318874,3.44488200,-4.61368100,0.83046260,0.00621309
-8.98318874,3.73708200,-4.45989200,0.46136810,0.00695128
-8.90318874,3.90625000,-4.13693400,0.13841040,0.00756644
-8.82318874,3.90625000,-3.66018700,-0.12303150,0.00808932
-8.74318874,3.73708200,-2.99889300,-0.30757870,0.00845842
-8.66318874,3.44488200,-2.18380900,-0.43061020,0.00873524
-8.58318874,3.01427100,-1.24569400,-0.50750490,0.00888903
-8.50318874,2.52214600,-0.24606300,-0.53826270,0.00898130
-8.42318873,1.96850400,0.78432570,-0.53826270,0.00898130
-8.34318873,1.43024100,1.75319900,-0.50750490,0.00891978
-8.26318873,0.92273620,2.59904000,-0.43061020,0.00873524
-8.18318873,0.47674700,3.29109200,-0.29219980,0.00848917
-8.10318873,0.13841040,3.76783900,-0.10765260,0.00808932
-8.02318873,-0.10765260,4.01390200,0.12303150,0.00756644
-7.94318873,-0.23068400,4.04466000,0.41523130,0.00685901
-7.86318873,-0.24606300,3.87549200,0.73818890,0.00599779
-7.78318873,-0.18454720,3.52177600,1.10728300,0.00501353
-7.70318872,-0.06151574,3.06040800,1.50713600,0.00396777
-7.62318872,0.06151574,2.52214600,1.90698800,0.00286048
-7.54318872,0.18454720,1.93774600,2.33759800,0.00184547
-7.46318872,0.24606300,1.35334600,2.76820900,0.00098425
-7.38318872,0.23068400,0.78432570,3.21419800,0.00036909
-7.30318872,0.10765260,0.26144190,3.67556500,0.00003076
-7.22318872,-0.13841040,-0.24606300,4.16769200,0.00003076
-7.14318872,-0.52288380,-0.72281000,4.67519700,0.00036909
-7.06318872,-1.01501000,-1.18417800,5.19808000,0.00098425
-6.98318872,-1.58403000,-1.61478800,5.72096400,0.00184547
-6.90318871,-2.21456700,-2.04539800,6.22846900,0.00286048
-6.82318871,-2.82972400,-2.44525100,6.70521600,0.00396777
-6.74318871,-3.36798700,-2.84510300,7.13582600,0.00501353
-6.66318871,-3.78321800,-3.21419800,7.47416300,0.00602854
-6.58318871,-4.01390200,-3.53715500,7.72022600,0.00688976
-6.50318871,-4.01390200,-3.81397600,7.82787800,0.00756644
-6.42318871,-3.76783900,-4.01390200,7.81250000,0.00805856
-6.34318871,-3.26033400,-4.13693400,7.65871000,0.00839690
-6.26318871,-2.52214600,-4.16769200,7.36651000,0.00855069
-6.18318870,-1.58403000,-4.12155500,6.96665800,0.00858145
-6.10318870,-0.53826270,-4.01390200,6.47453200,0.00851993
-6.02318870,0.53826270,-3.89087100,5.92089000,0.00836614
-5.94318870,1.58403000,-3.76783900,5.38262700,0.00821235
-5.86318870,2.52214600,-3.69094500,4.85974400,0.00805856
-5.78318870,3.26033400,-3.70632400,4.41375400,0.00793553
-5.70318870,3.76783900,-3.81397600,4.06003900,0.00787402
-5.62318870,4.01390200,-4.06003900,3.81397600,0.00784326
-5.54318870,4.01390200,-4.39837600,3.66018700,0.00784326
-5.46318869,3.78321800,-4.85974400,3.59867100,0.00787402
-5.38318869,3.36798700,-5.36724900,3.59867100,0.00787402
-5.30318869,2.82972400,-5.92089000,3.64480800,0.00790477
-5.22318869,2.21456700,-6.47453200,3.72170300,0.00790477
-5.14318869,1.59940900,-6.96665800,3.78321800,0.00790477
-5.06318869,1.01501000,-7.38188900,3.84473400,0.00787402
-4.98318869,0.53826270,-7.67408900,3.89087100,0.00784326
-4.90318869,0.15378940,-7.82787800,3.90625000,0.00784326
-4.82318869,-0.12303150,-7.81250000,3.92162900,0.00784326
-4.74318869,-0.27682080,-7.62795300,3.93700800,0.00784326
-4.66318868,-0.35371550,-7.28961600,3.93700800,0.00787402
-4.58318868,-0.35371550,-6.79749000,3.95238700,0.00790477
-4.50318868,-0.30757870,-6.22846900,3.95238700,0.00790477
-4.42318868,-0.23068400,-5.62869100,3.95238700,0.00790477
-4.34318868,-0.16916830,-5.02891200,3.95238700,0.00790477
-4.26318868,-0.10765260,-4.52140800,3.93700800,0.00787402
-4.18318868,-0.04613681,-4.15231300,3.92162900,0.00784326
-4.10318868,-0.01537894,-3.95238700,3.92162900,0.00784326
-4.02318868,0.01537894,-3.93700800,3.92162900,0.00784326
-3.94318867,0.04613681,-4.10617600,3.92162900,0.00784326
-3.86318867,0.10765260,-4.42913300,3.93700800,0.00787402
-3.78318867,0.16916830,-4.87512300,3.95238700,0.00790477
-3.70318867,0.23068400,-5.38262700,3.95238700,0.00790477
-3.62318867,0.30757870,-5.93626900,3.95238700,0.00790477
-3.54318867,0.35371550,-6.45915300,3.95238700,0.00787402
-3.46318867,0.33833660,-6.93590000,3.93700800,0.00787402
-3.38318867,0.27682080,-7.35113100,3.92162900,0.00784326
-3.30318867,0.10765260,-7.70484700,3.92162900,0.00784326
-3.22318866,-0.13841040,-7.96628900,3.92162900,0.00787402
-3.14318866,-0.49212600,-8.16621500,3.92162900,0.00793553
-3.06318866,-0.92273620,-8.30462600,3.93700800,0.00805856
-2.98318866,-1.43024100,-8.39689900,3.95238700,0.00821235
-2.90318866,-1.96850400,-8.44303500,3.95238700,0.00836614
-2.82318866,-2.52214600,-8.44303500,3.95238700,0.00851993
-2.74318866,-3.02965000,-8.39689900,3.95238700,0.00858145
-2.66318866,-3.44488200,-8.30462600,3.93700800,0.00855069
-2.58318866,-3.75246000,-8.16621500,3.92162900,0.00839690
-2.50318866,-3.90625000,-7.96628900,3.92162900,0.00805856
-2.42318865,-3.89087100,-7.70484700,3.92162900,0.00756644
-2.34318865,-3.70632400,-7.39726800,3.92162900,0.00688976
-2.26318865,-3.35260800,-7.04355200,3.93700800,0.00602854
-2.18318865,-2.86048200,-6.61294300,3.95238700,0.00501353
-2.10318865,-2.27608300,-6.16695300,3.95238700,0.00396777
-2.02318865,-1.67630400,-5.69020700,3.95238700,0.00286048
-1.94318865,-1.09190400,-5.21345900,3.95238700,0.00184547
-1.86318865,-0.58439960,-4.76747000,3.98314500,0.00098425
-1.78318865,-0.23068400,-4.36761800,3.99852300,0.00036909
-1.70318864,-0.03075787,-4.04466000,3.96776600,0.00003076
-1.62318864,-0.01537894,-3.82935500,3.86011300,0.00003076
-1.54318864,-0.16916830,-3.70632400,3.62942900,0.00036909
-1.46318864,-0.49212600,-3.69094500,3.27571300,0.00098425
-1.38318864,-0.92273620,-3.76783900,2.81434500,0.00184547
-1.30318864,-1.43024100,-3.89087100,2.29146100,0.00286048
-1.22318864,-1.98388300,-4.01390200,1.83009300,0.00396777
-1.14318864,-2.50676700,-4.13693400,1.67630400,0.00501353
-1.06318864,-2.99889300,-4.18307100,2.03002000,0.00602854
-0.98318863,-3.42950300,-4.15231300,2.76820900,0.00688976
-0.90318863,-3.78321800,-4.02928100,3.59867100,0.00756644
-0.82318863,-4.04466000,-3.78321800,4.13693400,0.00805856
-0.74318863,-4.24458600,-3.44488200,4.06003900,0.00839690
-0.66318863,-4.36761800,-3.01427100,3.19881900,0.00855069
-0.58318863,-4.45989200,-2.52214600,1.63016700,0.00858145
-0.50318863,-4.49065000,-1.98388300,-0.21530510,0.00851993
-0.42318863,-4.49065000,-1.43024100,-1.53789400,0.00836614
-0.34318863,-4.47527100,-0.92273620,-1.18417800,0.00821235
-0.26318863,-4.42913300,-0.49212600,2.19918800,0.00805856
-0.18318862,-4.32148100,-0.18454720,9.82714000,0.00793553
-0.10318862,-4.09079700,-0.01537894,22.74545000,0.00787402
-0.02318862,-3.70632400,-0.01537894,41.52312000,0.00784326
0.05681138,-3.09116600,-0.18454720,66.20631000,0.00784326
0.13681138,-2.24532500,-0.49212600,96.16449000,0.00787402
0.21681138,-1.21493600,-0.92273620,130.12120000,0.00787402
0.29681138,-0.07689468,-1.43024100,166.21550000,0.00790477
0.37681138,0.99963080,-1.98388300,202.18690000,0.00790477
0.45681138,1.73782000,-2.50676700,235.58990000,0.00787402
0.53681139,1.89160900,-3.01427100,264.08710000,0.00787402
0.61681139,1.44562000,-3.44488200,285.64830000,0.00784326
0.69681139,0.55364170,-3.78321800,298.84350000,0.00784326
0.77681139,-0.58439960,-4.02928100,302.90350000,0.00787402
0.85681139,-1.70706200,-4.19845000,297.87460000,0.00793553
0.93681139,-2.67593500,-4.27534400,284.57180000,0.00805856
1.01681139,-3.44488200,-4.29072300,264.36390000,0.00821235
1.09681139,-4.21382900,-4.25996500,239.12710000,0.00836614
1.17681139,-5.39800600,-4.18307100,210.90670000,0.00851993
1.25681139,-7.85863600,-4.13693400,181.73290000,0.00855069
1.33681140,-12.45694000,-4.12155500,153.40490000,0.00839690
1.41681140,-19.60814000,-4.09079700,127.29150000,0.00815084
1.49681140,-29.43528000,-4.01390200,104.31530000,0.00793553
1.57681140,-41.75381000,-3.78321800,84.84559000,0.00781250
1.65681140,-56.17925000,-3.35260800,68.82074000,0.00790477
1.73681140,-72.15797000,-2.69131400,55.77940000,0.00830463
1.81681140,-89.15169000,-1.83009300,45.07566000,0.00891978
1.89681140,-106.72980000,-0.87659940,35.98671000,0.00962722
1.97681140,-124.73850000,0.00000000,27.86663000,0.01018086
2.05681141,-143.50090000,0.41523130,20.20792000,0.00993479
2.13681141,-163.52420000,0.06151574,12.82603000,0.00845842
2.21681141,-184.93170000,-1.09190400,5.72096400,0.00575172
2.29681141,-207.75400000,-2.87586100,-0.89197830,0.00206078
2.37681141,-231.82210000,-5.02891200,-6.70521600,-0.00215305
2.45681141,-256.75130000,-7.24347900,-11.44193000,-0.00642840
2.53681141,-282.06510000,-9.31963500,-14.85605000,-0.01039616
2.61681141,-307.17890000,-11.18049000,-16.90145000,-0.01399483
2.69681141,-331.52370000,-13.04134000,-17.71653000,-0.01753199
2.77681142,-354.62290000,-15.39431000,-17.73191000,-0.02180733
2.85681142,-376.33800000,-19.20829000,-17.40895000,-0.02832800
2.93681142,-396.59200000,-25.48290000,-16.96297000,-0.03866265
3.01681142,-415.16970000,-34.80253000,-16.48622000,-0.05379552
3.09681142,-431.79440000,-47.39788000,-15.97871000,-0.07412647
3.17681142,-446.25060000,-63.19205000,-15.36356000,-0.09968627
3.25681142,-458.29230000,-81.76981000,-14.56385000,-0.12989050
3.33681142,-467.75030000,-102.53140000,-13.45657000,-0.16375490
3.41681142,-474.53250000,-124.72320000,-12.01095000,-0.20011070
3.49681142,-478.63860000,-147.69930000,-10.24237000,-0.23772760
3.57681143,-480.14580000,-170.93690000,-8.27386800,-0.27562130
3.65681143,-479.36150000,-194.38980000,-6.24384800,-0.31326900
3.73681143,-476.67010000,-218.18100000,-4.27534400,-0.35042450
3.81681143,-472.27170000,-242.21820000,-2.42987200,-0.38681100
3.89681143,-466.35090000,-266.39400000,-0.75356790,-0.42212100
3.97681143,-458.96900000,-290.53880000,0.70743110,-0.45617000
4.05681143,-450.12610000,-314.39160000,1.95312500,-0.48871190
4.13681143,-439.76070000,-337.58300000,3.01427100,-0.51940820
4.21681143,-427.85740000,-359.74410000,3.92162900,-0.54789000
4.29681144,-414.38540000,-380.41340000,4.69057600,-0.57366510
4.37681144,-399.31410000,-399.22180000,5.38262700,-0.59614910
4.45681144,-382.85860000,-415.95410000,5.99778500,-0.61484990
4.53681144,-365.46500000,-430.44100000,6.58218500,-0.62930610
4.61681144,-347.71770000,-442.39050000,7.13582600,-0.63896410
4.69681144,-330.17040000,-451.54100000,7.62795300,-0.64323940
4.77681144,-313.31510000,-457.67710000,8.04318300,-0.64185530
4.85681144,-297.45940000,-460.62990000,8.38152000,-0.63465800
4.93681144,-282.69560000,-460.38380000,8.61220400,-0.62183200
5.01681145,-268.88530000,-457.03120000,8.73523500,-0.60380780
5.09681145,-255.69020000,-450.80270000,8.75061400,-0.58132380
5.17681145,-242.44890000,-442.03670000,8.68909800,-0.55533340
5.25681145,-228.59250000,-431.19460000,8.56606700,-0.52688240
5.33681145,-214.07480000,-418.87610000,8.39689900,-0.49717030
5.41681145,-199.06490000,-405.52720000,8.19697300,-0.46724290
5.49681145,-183.96280000,-391.54770000,7.96628900,-0.43789990
5.57681145,-169.19910000,-377.16840000,7.70484700,-0.40966410
5.65681145,-155.21960000,-362.49690000,7.39726800,-0.38278170
5.73681145,-142.30130000,-347.50240000,7.02817400,-0.35719120
5.81681146,-130.52100000,-332.10810000,6.61294300,-0.33261560
5.89681146,-119.74040000,-316.19090000,6.16695300,-0.30868600
5.97681146,-109.43650000,-299.48940000,5.69020700,-0.28481790
6.05681146,-99.07111000,-281.95740000,5.21345900,-0.26067300
6.13681146,-88.58267000,-263.90250000,4.76747000,-0.23655880
6.21681146,-78.04810000,-245.80150000,4.36761800,-0.21302900
6.29681146,-67.74422000,-228.14650000,4.04466000,-0.19082190
6.37681146,-57.94783000,-211.44500000,3.81397600,-0.17064470
6.45681146,-48.98191000,-196.01990000,3.66018700,-0.15305120
6.53681147,-41.03100000,-182.05580000,3.59867100,-0.13834890
6.61681147,-34.18737000,-169.46050000,3.59867100,-0.12635340
6.69681147,-28.34338000,-157.98780000,3.64480800,-0.11663390
6.77681147,-23.16068000,-146.99190000,3.72170300,-0.10817540
6.85681147,-18.27018000,-135.96520000,3.78321800,-0.09993234
6.93681147,-13.65650000,-124.83080000,3.84473400,-0.09159695
7.01681147,-9.38115100,-113.77340000,3.89087100,-0.08310778
7.09681147,-5.58255400,-103.11580000,3.90625000,-0.07468012
7.17681147,-2.44525100,-93.24249000,3.92162900,-0.06668307
7.25681148,-0.12303150,-84.47649000,3.93700800,-0.05948573
7.33681148,1.29183100,-77.03309000,3.93700800,-0.05336491
7.41681148,1.81471400,-70.92765000,3.95238700,-0.04847441
7.49681148,1.55327200,-65.99102000,3.95238700,-0.04475271
7.57681148,0.81508360,-61.68491000,3.95238700,-0.04176919
7.65681148,-0.13841040,-57.48647000,3.95238700,-0.03900098
7.73681148,-1.16879900,-53.25726000,3.93700800,-0.03647884
7.81681148,-2.24532500,-49.04343000,3.92162900,-0.03414124
7.89681148,-3.33722900,-45.01414000,3.92162900,-0.03217274
7.97681148,-4.52140800,-41.41548000,3.92162900,-0.03072712
8.05681149,-5.84399600,-38.46272000,3.92162900,-0.02998893
8.13681149,-7.35113100,-36.34042000,3.93700800,-0.02998893
8.21681149,-9.04281500,-35.03321000,3.95238700,-0.03072712
8.29681149,-10.90367000,-34.38730000,3.95238700,-0.03204970
8.37681149,-12.81065000,-34.03359000,3.95238700,-0.03367987
8.45681149,-14.65613000,-33.51070000,3.95238700,-0.03527928
8.53681149,-16.37857000,-32.52645000,3.93700800,-0.03672490
8.61681149,-17.88570000,-30.97318000,3.92162900,-0.03792446
8.69681149,-19.11602000,-28.77399000,3.92162900,-0.03884719
8.77681150,-20.02337000,-26.00578000,3.92162900,-0.03955463
8.85681150,-20.59240000,-22.80696000,3.92162900,-0.04007751
8.93681150,-20.83846000,-19.30056000,3.93700800,-0.04047736
9.01681150,-20.77694000,-15.65576000,3.95238700,-0.04081570
9.09681150,-20.50012000,-11.99557000,3.95238700,-0.04109252
9.17681150,-20.10027000,-8.30462600,3.95238700,-0.04121555
9.25681150,-19.68504000,-4.61368100,3.95238700,-0.04115403
9.33681150,-19.36208000,-0.92273620,3.93700800,-0.04087722
9.41681150,-19.23905000,2.69131400,3.93700800,-0.04038509
9.49681151,-19.40822000,6.16695300,3.92162900,-0.03964690
9.57681151,-19.90034000,9.47342500,3.90625000,-0.03875492
9.65681151,-20.70005000,12.54921000,3.89087100,-0.03764764
9.73681151,-21.79195000,15.39431000,3.84473400,-0.03641732
9.81681151,-23.06841000,17.97798000,3.78321800,-0.03503322
9.89681151,-24.42175000,20.28482000,3.72170300,-0.03352608
9.97681151,-25.71358000,22.33022000,3.64480800,-0.03189592
10.05681151,-26.79011000,24.09879000,3.59867100,-0.03011196
10.13681151,-27.54367000,25.55979000,3.58329200,-0.02823573
10.21681151,-27.86663000,26.63632000,3.64480800,-0.02632874
10.29681152,-27.71284000,27.29761000,3.79859700,-0.02445251
10.37681152,-27.08231000,27.49754000,4.07541800,-0.02266855
10.45681152,-26.00578000,27.23610000,4.45989200,-0.02100763
10.53681152,-24.54478000,26.51329000,4.95201700,-0.01953125
10.61681152,-22.77620000,25.39062000,5.53641700,-0.01820866
10.69681152,-20.76156000,23.89887000,6.16695300,-0.01697835
10.77681152,-18.59313000,22.11491000,6.78211100,-0.01574803
10.85681152,-16.27091000,20.13103000,7.32037400,-0.01436393
10.93681152,-13.87180000,17.94722000,7.72022600,-0.01282603
11.01681153,-11.44193000,15.57886000,7.93553100,-0.01101132
11.09681153,-9.02743600,13.07210000,7.93553100,-0.00895054
11.17681153,-6.67445900,10.42692000,7.68946800,-0.00670522
11.25681153,-4.39837600,7.67408900,7.18196300,-0.00427534
11.33681153,-2.21456700,4.81360700,6.45915300,-0.00175320
11.41681153,-0.15378940,1.89160900,5.53641700,0.00076895
11.49681153,1.83009300,-1.04576800,4.49065000,0.00326034
11.57681153,3.73708200,-3.98314500,3.41412400,0.00572097
11.65681153,5.61331200,-6.85900500,2.35297700,0.00812008
