Time,Channel A,Channel B,Channel C,Channel D
(ns),(mV),(mV),(mV),(V)

-15.99999983,3.90625000,-3.92162900,7.82787800,0.00812008
-15.91999982,3.78321800,-3.92162900,7.72022600,0.00882751
-15.83999982,3.53715500,-3.93700800,7.47416300,0.00971949
-15.75999982,3.18344000,-3.95238700,7.13582600,0.01076526
-15.67999982,2.75283000,-3.95238700,6.70521600,0.01184178
-15.59999982,2.27608300,-3.95238700,6.22846900,0.01294907
-15.51999982,1.78395700,-3.93700800,5.72096400,0.01393332
-15.43999982,1.27645200,-3.93700800,5.19808000,0.01476378
-15.35999982,0.76894680,-3.92162900,4.67519700,0.01534818
-15.27999982,0.26144190,-3.92162900,4.16769200,0.01565576
-15.19999981,-0.26144190,-3.93700800,3.67556500,0.01565576
-15.11999981,-0.79970470,-3.96776600,3.21419800,0.01534818
-15.03999981,-1.36872500,-4.02928100,2.76820900,0.01476378
-14.95999981,-1.93774600,-4.10617600,2.33759800,0.01393332
-14.87999981,-2.52214600,-4.18307100,1.90698800,0.01294907
-14.79999981,-3.06040800,-4.25996500,1.50713600,0.01184178
-14.71999981,-3.53715500,-4.29072300,1.10728300,0.01076526
-14.63999981,-3.89087100,-4.27534400,0.73818890,0.00971949
-14.55999981,-4.06003900,-4.18307100,0.39985230,0.00882751
-14.47999980,-4.02928100,-4.02928100,0.12303150,0.00812008
-14.39999980,-3.75246000,-3.79859700,-0.10765260,0.00762795
-14.31999980,-3.19881900,-3.49101900,-0.24606300,0.00732037
-14.23999980,-2.41449300,-3.10654500,-0.32295760,0.00719734
-14.15999980,-1.43024100,-2.67593500,-0.33833660,0.00719734
-14.07999980,-0.30757870,-2.21456700,-0.30757870,0.00728962
-13.99999980,0.84584150,-1.73782000,-0.23068400,0.00744341
-13.91999980,1.93774600,-1.26107300,-0.15378940,0.00756644
-13.83999980,2.86048200,-0.83046260,-0.09227362,0.00768947
-13.75999980,3.52177600,-0.44598910,-0.03075787,0.00778174
-13.67999979,3.87549200,-0.12303150,0.00000000,0.00781250
-13.59999979,3.87549200,0.10765260,0.00000000,0.00784326
-13.51999979,3.52177600,0.26144190,-0.03075787,0.00787402
-13.43999979,2.86048200,0.33833660,-0.09227362,0.00787402
-13.35999979,1.93774600,0.33833660,-0.15378940,0.00790477
-13.27999979,0.84584150,0.30757870,-0.23068400,0.00790477
-13.19999979,-0.30757870,0.23068400,-0.30757870,0.00790477
-13.11999979,-1.43024100,0.15378940,-0.35371550,0.00787402
-13.03999979,-2.42987200,0.09227362,-0.33833660,0.00787402
-12.95999978,-3.22957700,0.03075787,-0.27682080,0.00784326
-12.87999978,-3.76783900,0.00000000,-0.10765260,0.00784326
-12.79999978,-4.01390200,0.00000000,0.13841040,0.00787402
-12.71999978,-3.98314500,0.03075787,0.49212600,0.00793553
-12.63999978,-3.69094500,0.09227362,0.92273620,0.00805856
-12.55999978,-3.21419800,0.15378940,1.43024100,0.00821235
-12.47999978,-2.58366100,0.23068400,1.96850400,0.00836614
-12.39999978,-1.90698800,0.30757870,2.52214600,0.00851993
-12.31999978,-1.24569400,0.35371550,3.02965000,0.00858145
-12.23999977,-0.67667320,0.33833660,3.44488200,0.00855069
-12.15999977,-0.26144190,0.27682080,3.75246000,0.00839690
-12.07999977,-0.03075787,0.10765260,3.90625000,0.00805856
-11.99999977,-0.01537894,-0.13841040,3.89087100,0.00756644
-11.91999977,-0.21530510,-0.49212600,3.70632400,0.00688976
-11.83999977,-0.58439960,-0.92273620,3.35260800,0.00602854
-11.75999977,-1.07652500,-1.43024100,2.86048200,0.00501353
-11.67999977,-1.67630400,-1.96850400,2.27608300,0.00396777
-11.59999977,-2.27608300,-2.52214600,1.67630400,0.00286048
-11.51999977,-2.86048200,-3.01427100,1.09190400,0.00184547
-11.43999976,-3.35260800,-3.44488200,0.58439960,0.00098425
-11.35999976,-3.70632400,-3.73708200,0.23068400,0.00036909
-11.27999976,-3.89087100,-3.90625000,0.03075787,0.00003076
-11.19999976,-3.90625000,-3.90625000,0.01537894,0.00003076
-11.11999976,-3.75246000,-3.73708200,0.16916830,0.00036909
-11.03999976,-3.44488200,-3.44488200,0.49212600,0.00098425
-10.95999976,-3.02965000,-3.01427100,0.92273620,0.00184547
-10.87999976,-2.52214600,-2.52214600,1.43024100,0.00286048
-10.79999976,-1.96850400,-1.96850400,1.98388300,0.00396777
-10.71999975,-1.43024100,-1.43024100,2.50676700,0.00501353
-10.63999975,-0.92273620,-0.92273620,3.01427100,0.00602854
-10.55999975,-0.49212600,-0.47674700,3.44488200,0.00688976
-10.47999975,-0.13841040,-0.13841040,3.78321800,0.00756644
-10.39999975,0.10765260,0.10765260,4.02928100,0.00805856
-10.31999975,0.27682080,0.23068400,4.19845000,0.00839690
-10.23999975,0.33833660,0.24606300,4.27534400,0.00855069
-10.15999975,0.35371550,0.18454720,4.29072300,0.00858145
-10.07999975,0.30757870,0.06151574,4.25996500,0.00851993
-9.99999974,0.23068400,-0.06151574,4.18307100,0.00836614
-9.91999974,0.16916830,-0.18454720,4.10617600,0.00821235
-9.83999974,0.09227362,-0.24606300,4.02928100,0.00805856
-9.75999974,0.04613681,-0.23068400,3.96776600,0.00793553
-9.67999974,0.01537894,-0.10765260,3.93700800,0.00787402
-9.59999974,0.00000000,0.13841040,3.92162900,0.00784326
-9.51999974,-0.01537894,0.52288380,3.92162900,0.00784326
-9.43999974,0.00000000,1.01501000,3.93700800,0.00787402
-9.35999974,0.00000000,1.58403000,3.93700800,0.00787402
-9.27999974,0.00000000,2.21456700,3.95238700,0.00790477
-9.19999973,0.00000000,2.82972400,3.95238700,0.00790477
-9.11999973,0.00000000,3.36798700,3.95238700,0.00790477
-9.03999973,0.00000000,3.78321800,3.93700800,0.00787402
-8.95999973,-0.01537894,3.99852300,3.93700800,0.00784326
-8.87999973,0.00000000,4.01390200,3.92162900,0.00784326
-8.79999973,0.01537894,3.76783900,3.90625000,0.00784326
-8.71999973,0.04613681,3.30647100,3.89087100,0.00784326
-8.63999973,0.09227362,2.61441900,3.84473400,0.00787402
-8.55999973,0.16916830,1.75319900,3.78321800,0.00790477
-8.47999972,0.23068400,0.78432570,3.72170300,0.00790477
-8.39999972,0.30757870,-0.24606300,3.64480800,0.00790477
-8.31999972,0.35371550,-1.24569400,3.59867100,0.00790477
-8.23999972,0.33833660,-2.16843000,3.59867100,0.00787402
-8.15999972,0.27682080,-2.98351400,3.66018700,0.00784326
-8.07999972,0.10765260,-3.64480800,3.81397600,0.00784326
-7.99999972,-0.13841040,-4.15231300,4.06003900,0.00784326
-7.91999972,-0.49212600,-4.50602900,4.41375400,0.00784326
-7.83999972,-0.92273620,-4.70595500,4.85974400,0.00787402
-7.75999972,-1.43024100,-4.79822800,5.38262700,0.00790477
-7.67999971,-1.96850400,-4.79822800,5.92089000,0.00790477
-7.59999971,-2.52214600,-4.73671200,6.47453200,0.00790477
-7.51999971,-3.01427100,-4.61368100,6.96665800,0.00787402
-7.43999971,-3.44488200,-4.47527100,7.38188900,0.00787402
-7.35999971,-3.73708200,-4.29072300,7.67408900,0.00784326
-7.27999971,-3.90625000,-4.06003900,7.82787800,0.00784326
-7.19999971,-3.90625000,-3.76783900,7.82787800,0.00787402
-7.11999971,-3.73708200,-3.41412400,7.67408900,0.00793553
-7.03999971,-3.44488200,-2.99889300,7.38188900,0.00805856
-6.95999970,-3.01427100,-2.50676700,6.96665800,0.00821235
-6.87999970,-2.52214600,-1.98388300,6.47453200,0.00836614
-6.79999970,-1.96850400,-1.43024100,5.92089000,0.00851993
-6.71999970,-1.43024100,-0.92273620,5.38262700,0.00858145
-6.63999970,-0.92273620,-0.49212600,4.85974400,0.00855069
-6.55999970,-0.49212600,-0.18454720,4.41375400,0.00839690
-6.47999970,-0.13841040,-0.01537894,4.06003900,0.00805856
-6.39999970,0.10765260,-0.01537894,3.81397600,0.00756644
-6.31999970,0.27682080,-0.18454720,3.66018700,0.00688976
-6.23999969,0.33833660,-0.49212600,3.59867100,0.00602854
-6.15999969,0.35371550,-0.92273620,3.59867100,0.00501353
-6.07999969,0.30757870,-1.43024100,3.64480800,0.00396777
-5.99999969,0.23068400,-1.98388300,3.72170300,0.00286048
-5.91999969,0.16916830,-2.50676700,3.78321800,0.00184547
-5.83999969,0.09227362,-3.01427100,3.84473400,0.00098425
-5.75999969,0.04613681,-3.44488200,3.89087100,0.00036909
-5.67999969,0.01537894,-3.78321800,3.90625000,0.00003076
-5.59999969,0.00000000,-4.02928100,3.92162900,0.00003076
-5.51999969,-0.01537894,-4.19845000,3.93700800,0.00036909
-5.43999968,0.00000000,-4.27534400,3.93700800,0.00098425
-5.35999968,0.00000000,-4.29072300,3.95238700,0.00184547
-5.27999968,0.00000000,-4.25996500,3.95238700,0.00286048
-5.19999968,0.00000000,-4.18307100,3.95238700,0.00396777
-5.11999968,0.00000000,-4.10617600,3.95238700,0.00501353
-5.03999968,0.00000000,-4.02928100,3.93700800,0.00602854
-4.95999968,0.00000000,-3.96776600,3.93700800,0.00688976
-4.87999968,0.00000000,-3.92162900,3.92162900,0.00756644
-4.79999968,0.00000000,-3.92162900,3.90625000,0.00805856
-4.71999967,0.00000000,-3.96776600,3.89087100,0.00839690
-4.63999967,0.00000000,-4.02928100,3.84473400,0.00855069
-4.55999967,0.00000000,-4.10617600,3.78321800,0.00858145
-4.47999967,0.00000000,-4.18307100,3.72170300,0.00851993
-4.39999967,0.00000000,-4.25996500,3.64480800,0.00836614
-4.31999967,0.00000000,-4.29072300,3.59867100,0.00821235
-4.23999967,0.00000000,-4.27534400,3.59867100,0.00805856
-4.15999967,0.00000000,-4.18307100,3.66018700,0.00793553
-4.07999967,0.00000000,-4.02928100,3.81397600,0.00787402
-3.99999966,0.00000000,-3.79859700,4.04466000,0.00784326
-3.91999966,0.00000000,-3.49101900,4.36761800,0.00784326
-3.83999966,0.00000000,-3.10654500,4.76747000,0.00787402
-3.75999966,0.00000000,-2.67593500,5.21345900,0.00787402
-3.67999966,0.00000000,-2.21456700,5.69020700,0.00790477
-3.59999966,0.00000000,-1.73782000,6.16695300,0.00790477
-3.51999966,0.00000000,-1.26107300,6.61294300,0.00790477
-3.43999966,0.00000000,-0.83046260,7.04355200,0.00787402
-3.35999966,-0.01537894,-0.44598910,7.39726800,0.00784326
-3.27999966,0.00000000,-0.12303150,7.70484700,0.00784326
-3.19999965,0.01537894,0.10765260,7.96628900,0.00784326
-3.11999965,0.04613681,0.26144190,8.16621500,0.00784326
-3.03999965,0.09227362,0.33833660,8.30462600,0.00787402
-2.95999965,0.16916830,0.33833660,8.39689900,0.00790477
-2.87999965,0.23068400,0.30757870,8.44303500,0.00790477
-2.79999965,0.30757870,0.23068400,8.44303500,0.00790477
-2.71999965,0.33833660,0.16916830,8.39689900,0.00790477
-2.63999965,0.33833660,0.09227362,8.30462600,0.00787402
-2.55999965,0.26144190,0.04613681,8.16621500,0.00784326
-2.47999964,0.10765260,0.01537894,7.96628900,0.00784326
-2.39999964,-0.12303150,0.00000000,7.70484700,0.00784326
-2.31999964,-0.44598910,-0.01537894,7.39726800,0.00784326
-2.23999964,-0.83046260,0.00000000,7.04355200,0.00787402
-2.15999964,-1.26107300,0.00000000,6.61294300,0.00790477
-2.07999964,-1.73782000,0.00000000,6.16695300,0.00790477
-1.99999964,-2.21456700,0.00000000,5.69020700,0.00790477
-1.91999964,-2.67593500,0.00000000,5.22883800,0.00790477
-1.83999964,-3.10654500,0.00000000,4.82898600,0.00787402
-1.75999963,-3.49101900,0.00000000,4.45989200,0.00784326
-1.67999963,-3.79859700,0.00000000,4.10617600,0.00784326
-1.59999963,-4.02928100,0.00000000,3.72170300,0.00784326
-1.51999963,-4.18307100,0.00000000,3.27571300,0.00784326
-1.43999963,-4.27534400,0.00000000,2.75283000,0.00787402
-1.35999963,-4.29072300,0.00000000,2.13767200,0.00790477
-1.27999963,-4.25996500,0.00000000,1.52251500,0.00790477
-1.19999963,-4.18307100,0.00000000,0.98425190,0.00790477
-1.11999963,-4.10617600,0.00000000,0.79970470,0.00790477
-1.03999963,-4.02928100,0.00000000,1.23031500,0.00787402
-0.95999962,-3.96776600,0.00000000,2.15305100,0.00784326
-0.87999962,-3.93700800,0.00000000,3.33722900,0.00784326
-0.79999962,-3.92162900,0.00000000,4.45989200,0.00784326
-0.71999962,-3.92162900,0.00000000,5.21345900,0.00784326
-0.63999962,-3.93700800,0.00000000,5.42876500,0.00787402
-0.55999962,-3.93700800,0.00000000,5.13656500,0.00790477
-0.47999962,-3.95238700,0.00000000,4.67519700,0.00790477
-0.39999962,-3.95238700,0.00000000,4.70595500,0.00790477
-0.31999962,-3.96776600,0.00000000,6.24384800,0.00790477
-0.23999961,-3.99852300,0.00000000,10.42692000,0.00787402
-0.15999961,-4.01390200,-0.01537894,18.36245000,0.00784326
-0.07999961,-3.98314500,0.00000000,30.97318000,0.00784326
0.00000039,-3.82935500,0.01537894,48.81274000,0.00784326
0.08000039,-3.53715500,0.04613681,71.91190000,0.00784326
0.16000039,-3.07578700,0.09227362,99.73240000,0.00787402
0.24000039,-2.49138800,0.16916830,131.09010000,0.00790477
0.32000039,-1.81471400,0.23068400,164.29320000,0.00790477
0.40000039,-1.21493600,0.30757870,197.28100000,0.00790477
0.48000039,-0.93811510,0.33833660,227.76200000,0.00787402
0.56000040,-1.23031500,0.32295760,253.55250000,0.00787402
0.64000040,-2.04539800,0.24606300,272.74550000,0.00784326
0.72000040,-3.24495600,0.10765260,283.97210000,0.00784326
0.80000040,-4.59830200,-0.12303150,286.49420000,0.00787402
0.88000040,-5.85937500,-0.39985230,280.37340000,0.00793553
0.96000040,-6.84362600,-0.73818890,266.31700000,0.00805856
1.04000040,-7.56643700,-1.10728300,245.69390000,0.00821235
1.12000040,-8.22773100,-1.50713600,220.30330000,0.00836614
1.20000040,-9.27349900,-1.90698800,192.15980000,0.00851993
1.28000041,-11.61110000,-2.35297700,163.26280000,0.00851993
1.36000041,-16.14788000,-2.86048200,135.41150000,0.00836614
1.44000041,-23.29909000,-3.35260800,110.02090000,0.00812008
1.52000041,-33.24926000,-3.76783900,88.02903000,0.00790477
1.60000041,-45.81385000,-4.02928100,69.83575000,0.00784326
1.68000041,-60.59301000,-4.07541800,55.39493000,0.00808932
1.76000041,-77.01772000,-3.86011300,44.22982000,0.00867372
1.84000041,-94.51894000,-3.44488200,35.64837000,0.00956570
1.92000041,-112.65070000,-2.92199800,28.86626000,0.01058071
2.00000042,-131.19770000,-2.44525100,23.11454000,0.01138041
2.08000042,-150.46750000,-2.41449300,17.80881000,0.01131890
2.16000042,-170.87540000,-3.13730300,12.61073000,0.00978100
2.24000042,-192.57500000,-4.61368100,7.42802600,0.00676673
2.32000042,-215.56650000,-6.67445900,2.38373500,0.00249139
2.40000042,-239.68070000,-9.05819300,-2.24532500,-0.00261442
2.48000042,-264.56380000,-11.47269000,-6.19771100,-0.00802781
2.56000042,-289.73910000,-13.67187000,-9.24274100,-0.01331816
2.64000042,-314.63760000,-15.64038000,-11.24200000,-0.01842397
2.72000042,-338.70570000,-17.54737000,-12.24163000,-0.02352977
2.80000043,-361.46650000,-19.88497000,-12.59535000,-0.02943528
2.88000043,-382.75100000,-23.65280000,-12.65686000,-0.03764764
2.96000043,-402.46670000,-29.83514000,-12.54921000,-0.04970472
3.04000043,-420.36780000,-39.00098000,-12.34929000,-0.06662156
3.12000043,-436.19270000,-51.42716000,-12.01095000,-0.08885950
3.20000043,-449.66470000,-67.00603000,-11.47269000,-0.11638780
3.28000043,-460.56840000,-85.38385000,-10.64222000,-0.14868360
3.36000043,-468.76540000,-105.91470000,-9.45804600,-0.18473180
3.44000043,-474.16340000,-127.87590000,-7.92015200,-0.22333290
3.52000044,-476.82390000,-150.62130000,-6.05930100,-0.26313360
3.60000044,-476.91620000,-173.58200000,-4.01390200,-0.30305730
3.68000044,-474.77850000,-196.69660000,-1.95312500,-0.34245820
3.76000044,-470.85690000,-220.01110000,0.00000000,-0.38096700
3.84000044,-465.44350000,-243.43320000,1.75319900,-0.41812250
3.92000044,-458.76900000,-266.83990000,3.27571300,-0.45361710
4.00000044,-450.94120000,-290.06210000,4.50602900,-0.48723550
4.08000044,-441.94450000,-312.83830000,5.44414400,-0.51873150
4.16000044,-431.71750000,-334.86100000,6.12081600,-0.54779770
4.24000045,-420.19870000,-355.74560000,6.59756400,-0.57418800
4.32000045,-407.29570000,-375.13840000,6.90514200,-0.59747170
4.40000045,-392.91640000,-392.63960000,7.12044700,-0.61724900
4.48000045,-377.15300000,-408.09550000,7.27423700,-0.63308930
4.56000045,-360.42070000,-421.35210000,7.41264700,-0.64459280
4.64000045,-343.21170000,-432.16350000,7.58181600,-0.65123650
4.72000045,-326.09500000,-440.25280000,7.75098400,-0.65255900
4.80000045,-309.51650000,-445.45090000,7.93553100,-0.64822220
4.88000045,-293.83000000,-447.63470000,8.12007800,-0.63816430
4.96000045,-279.11230000,-446.74270000,8.27386800,-0.62247780
5.04000046,-265.28670000,-442.89800000,8.39689900,-0.60168550
5.12000046,-252.04540000,-436.30040000,8.44303500,-0.57652560
5.20000046,-238.72720000,-427.24220000,8.44303500,-0.54792080
5.28000046,-224.80930000,-416.20010000,8.39689900,-0.51707060
5.36000046,-210.23010000,-403.68170000,8.30462600,-0.48517470
5.44000046,-195.18950000,-390.14820000,8.16621500,-0.45340180
5.52000046,-180.05660000,-375.95350000,7.96628900,-0.42270550
5.60000046,-165.26210000,-361.37420000,7.70484700,-0.39360850
5.68000046,-151.25180000,-346.50280000,7.39726800,-0.36644930
5.76000047,-138.27200000,-331.35460000,7.04355200,-0.34113560
5.84000047,-126.41490000,-315.83720000,6.61294300,-0.31729820
5.92000047,-115.55730000,-299.84310000,6.16695300,-0.29450660
6.00000047,-105.17650000,-283.14160000,5.69020700,-0.27202260
6.08000047,-94.78038000,-265.67110000,5.21345900,-0.24929260
6.16000047,-84.30733000,-247.73930000,4.76747000,-0.22647020
6.24000047,-73.86503000,-229.80740000,4.36761800,-0.20404770
6.32000047,-63.69955000,-212.35240000,4.04466000,-0.18267100
6.40000047,-54.14923000,-195.86610000,3.81397600,-0.16301670
6.48000048,-45.50628000,-180.68710000,3.66018700,-0.14570010
6.56000048,-37.92445000,-166.95370000,3.59867100,-0.13099780
6.64000048,-31.51144000,-154.61980000,3.59867100,-0.11884840
6.72000048,-26.12881000,-143.43930000,3.64480800,-0.10888290
6.80000048,-21.42286000,-132.79710000,3.72170300,-0.10011690
6.88000048,-17.00910000,-122.17030000,3.78321800,-0.09165847
6.96000048,-12.82603000,-111.51270000,3.84473400,-0.08323081
7.04000048,-8.93516300,-101.00890000,3.89087100,-0.07480315
7.12000048,-5.44414400,-90.99716000,3.90625000,-0.06662156
7.20000048,-2.56828200,-81.84669000,3.92162900,-0.05908588
7.28000049,-0.43061020,-73.89578000,3.93700800,-0.05256521
7.36000049,0.86122040,-67.31360000,3.93700800,-0.04733637
7.44000049,1.30720900,-62.14628000,3.95238700,-0.04346088
7.52000049,1.01501000,-58.14776000,3.95238700,-0.04081570
7.60000049,0.27682080,-54.79515000,3.95238700,-0.03887795
7.68000049,-0.64591530,-51.51944000,3.95238700,-0.03718627
7.76000049,-1.61478800,-48.10531000,3.93700800,-0.03549459
7.84000049,-2.56828200,-44.55278000,3.92162900,-0.03380290
7.92000049,-3.47564000,-40.96949000,3.92162900,-0.03214198
8.00000050,-4.36761800,-37.55536000,3.92162900,-0.03066560
8.08000050,-5.25959600,-34.52571000,3.92162900,-0.02952756
8.16000050,-6.22846900,-32.04970000,3.93700800,-0.02878937
8.24000050,-7.28961600,-30.17347000,3.95238700,-0.02854331
8.32000050,-8.45841400,-28.83550000,3.95238700,-0.02869710
8.40000050,-9.68872900,-27.74360000,3.95238700,-0.02912771
8.48000050,-10.94980000,-26.52866000,3.95238700,-0.02955832
8.56000050,-12.25701000,-25.00615000,3.93700800,-0.03001969
8.64000050,-13.61036000,-23.11454000,3.93700800,-0.03051181
8.72000051,-14.99446000,-20.85384000,3.92162900,-0.03106545
8.80000051,-16.39395000,-18.30093000,3.90625000,-0.03174213
8.88000051,-17.77805000,-15.56348000,3.89087100,-0.03257259
8.96000051,-19.14677000,-12.74914000,3.84473400,-0.03358760
9.04000051,-20.45399000,-9.96555000,3.78321800,-0.03475640
9.12000051,-21.69968000,-7.25885800,3.72170300,-0.03604823
9.20000051,-22.85310000,-4.59830200,3.64480800,-0.03724778
9.28000051,-23.94500000,-1.90698800,3.59867100,-0.03829355
9.36000051,-24.97539000,0.83046260,3.59867100,-0.03903174
9.44000051,-25.99040000,3.61405000,3.66018700,-0.03940084
9.52000052,-26.97465000,6.42839500,3.81397600,-0.03937008
9.60000052,-27.94353000,9.25812000,4.06003900,-0.03897022
9.68000052,-28.91240000,12.07246000,4.41375400,-0.03820128
9.76000052,-29.85052000,14.80992000,4.85974400,-0.03709400
9.84000052,-30.72711000,17.43971000,5.38262700,-0.03570989
9.92000052,-31.49606000,19.90034000,5.92089000,-0.03411048
10.00000052,-32.11122000,22.16105000,6.47453200,-0.03235728
10.08000052,-32.49569000,24.11417000,6.96665800,-0.03045030
10.16000052,-32.57259000,25.71358000,7.38188900,-0.02845103
10.24000053,-32.34190000,26.82087000,7.67408900,-0.02642101
10.32000053,-31.78826000,27.38988000,7.82787800,-0.02448327
10.40000053,-30.89628000,27.37451000,7.82787800,-0.02260704
10.48000053,-29.72748000,26.77473000,7.67408900,-0.02091535
10.56000053,-28.31262000,25.60593000,7.38188900,-0.01931594
10.64000053,-26.69783000,23.96038000,6.96665800,-0.01787033
10.72000053,-24.88312000,21.91498000,6.47453200,-0.01648622
10.80000053,-22.91462000,19.60814000,5.92089000,-0.01513287
10.88000053,-20.74619000,17.10138000,5.38262700,-0.01368725
10.96000053,-18.37783000,14.48696000,4.85974400,-0.01214936
11.04000054,-15.84030000,11.81102000,4.41375400,-0.01048843
