Time,Channel A,Channel B,Channel C,Channel D
(ns),(mV),(mV),(mV),(V)

-15.25079383,-3.90625000,-0.01537894,3.79859700,0.00787402
-15.17079382,-3.75246000,-0.18454720,3.49101900,0.00793553
-15.09079382,-3.44488200,-0.49212600,3.10654500,0.00805856
-15.01079382,-3.02965000,-0.92273620,2.67593500,0.00821235
-14.93079382,-2.52214600,-1.43024100,2.21456700,0.00836614
-14.85079382,-1.96850400,-1.98388300,1.73782000,0.00851993
-14.77079382,-1.43024100,-2.50676700,1.27645200,0.00858145
-14.69079382,-0.92273620,-3.01427100,0.83046260,0.00855069
-14.61079382,-0.49212600,-3.44488200,0.46136810,0.00839690
-14.53079382,-0.13841040,-3.78321800,0.13841040,0.00805856
-14.45079381,0.10765260,-4.02928100,-0.12303150,0.00756644
-14.37079381,0.27682080,-4.19845000,-0.30757870,0.00688976
-14.29079381,0.33833660,-4.27534400,-0.43061020,0.00602854
-14.21079381,0.35371550,-4.29072300,-0.50750490,0.00501353
-14.13079381,0.30757870,-4.25996500,-0.53826270,0.00396777
-14.05079381,0.23068400,-4.18307100,-0.53826270,0.00286048
-13.97079381,0.16916830,-4.10617600,-0.50750490,0.00184547
-13.89079381,0.09227362,-4.02928100,-0.43061020,0.00098425
-13.81079381,0.04613681,-3.96776600,-0.30757870,0.00036909
-13.73079380,0.01537894,-3.93700800,-0.12303150,0.00003076
-13.65079380,0.00000000,-3.92162900,0.13841040,0.00003076
-13.57079380,-0.01537894,-3.92162900,0.46136810,0.00036909
-13.49079380,0.00000000,-3.93700800,0.83046260,0.00098425
-13.41079380,0.00000000,-3.93700800,1.27645200,0.00184547
-13.33079380,0.00000000,-3.95238700,1.73782000,0.00286048
-13.25079380,0.00000000,-3.95238700,2.21456700,0.00396777
-13.17079380,0.00000000,-3.95238700,2.67593500,0.00501353
-13.09079380,0.00000000,-3.93700800,3.10654500,0.00602854
-13.01079380,0.00000000,-3.92162900,3.47564000,0.00688976
-12.93079379,0.00000000,-3.92162900,3.78321800,0.00756644
-12.85079379,0.00000000,-3.92162900,4.04466000,0.00805856
-12.77079379,0.00000000,-3.92162900,4.22920700,0.00839690
-12.69079379,0.00000000,-3.93700800,4.36761800,0.00855069
-12.61079379,0.00000000,-3.95238700,4.44451300,0.00858145
-12.53079379,0.00000000,-3.95238700,4.49065000,0.00851993
-12.45079379,0.00000000,-3.95238700,4.49065000,0.00836614
-12.37079379,0.00000000,-3.95238700,4.45989200,0.00821235
-12.29079379,0.00000000,-3.93700800,4.36761800,0.00805856
-12.21079378,-0.01537894,-3.92162900,4.24458600,0.00793553
-12.13079378,0.00000000,-3.92162900,4.04466000,0.00787402
-12.05079378,0.01537894,-3.92162900,3.78321800,0.00784326
-11.97079378,0.04613681,-3.92162900,3.42950300,0.00784326
-11.89079378,0.09227362,-3.93700800,2.99889300,0.00787402
-11.81079378,0.16916830,-3.95238700,2.50676700,0.00787402
-11.73079378,0.23068400,-3.95238700,1.98388300,0.00790477
-11.65079378,0.30757870,-3.95238700,1.43024100,0.00790477
-11.57079378,0.35371550,-3.93700800,0.92273620,0.00787402
-11.49079377,0.33833660,-3.93700800,0.49212600,0.00787402
-11.41079377,0.27682080,-3.92162900,0.16916830,0.00784326
-11.33079377,0.10765260,-3.92162900,0.01537894,0.00784326
-11.25079377,-0.13841040,-3.93700800,0.03075787,0.00787402
-11.17079377,-0.49212600,-3.96776600,0.23068400,0.00793553
-11.09079377,-0.92273620,-4.02928100,0.58439960,0.00805856
-11.01079377,-1.43024100,-4.10617600,1.09190400,0.00821235
-10.93079377,-1.96850400,-4.18307100,1.67630400,0.00836614
-10.85079377,-2.52214600,-4.25996500,2.27608300,0.00851993
-10.77079377,-3.01427100,-4.29072300,2.86048200,0.00858145
-10.69079376,-3.44488200,-4.27534400,3.35260800,0.00855069
-10.61079376,-3.73708200,-4.18307100,3.70632400,0.00839690
-10.53079376,-3.90625000,-4.02928100,3.89087100,0.00805856
-10.45079376,-3.90625000,-3.79859700,3.89087100,0.00756644
-10.37079376,-3.73708200,-3.49101900,3.70632400,0.00688976
-10.29079376,-3.44488200,-3.10654500,3.35260800,0.00602854
-10.21079376,-3.01427100,-2.67593500,2.86048200,0.00501353
-10.13079376,-2.52214600,-2.21456700,2.27608300,0.00396777
-10.05079376,-1.96850400,-1.73782000,1.67630400,0.00286048
-9.97079375,-1.43024100,-1.27645200,1.09190400,0.00184547
-9.89079375,-0.92273620,-0.83046260,0.58439960,0.00098425
-9.81079375,-0.49212600,-0.46136810,0.23068400,0.00036909
-9.73079375,-0.13841040,-0.13841040,0.03075787,0.00003076
-9.65079375,0.10765260,0.12303150,0.01537894,0.00003076
-9.57079375,0.27682080,0.30757870,0.16916830,0.00036909
-9.49079375,0.33833660,0.43061020,0.49212600,0.00098425
-9.41079375,0.35371550,0.50750490,0.92273620,0.00184547
-9.33079375,0.30757870,0.53826270,1.43024100,0.00286048
-9.25079374,0.23068400,0.53826270,1.98388300,0.00396777
-9.17079374,0.15378940,0.50750490,2.50676700,0.00501353
-9.09079374,0.09227362,0.43061020,3.01427100,0.00599779
-9.01079374,0.03075787,0.30757870,3.44488200,0.00685901
-8.93079374,0.00000000,0.12303150,3.78321800,0.00756644
-8.85079374,0.00000000,-0.13841040,4.02928100,0.00808932
-8.77079374,0.03075787,-0.46136810,4.19845000,0.00848917
-8.69079374,0.09227362,-0.83046260,4.27534400,0.00873524
-8.61079374,0.15378940,-1.27645200,4.29072300,0.00891978
-8.53079374,0.23068400,-1.73782000,4.25996500,0.00898130
-8.45079373,0.30757870,-2.21456700,4.18307100,0.00898130
-8.37079373,0.35371550,-2.67593500,4.10617600,0.00891978
-8.29079373,0.33833660,-3.10654500,4.02928100,0.00873524
-8.21079373,0.27682080,-3.49101900,3.96776600,0.00848917
-8.13079373,0.10765260,-3.79859700,3.93700800,0.00808932
-8.05079373,-0.13841040,-4.02928100,3.92162900,0.00756644
-7.97079373,-0.49212600,-4.18307100,3.92162900,0.00685901
-7.89079373,-0.92273620,-4.27534400,3.93700800,0.00599779
-7.81079373,-1.43024100,-4.29072300,3.93700800,0.00501353
-7.73079372,-1.96850400,-4.25996500,3.95238700,0.00396777
-7.65079372,-2.52214600,-4.18307100,3.95238700,0.00286048
-7.57079372,-3.01427100,-4.10617600,3.93700800,0.00184547
-7.49079372,-3.44488200,-4.02928100,3.93700800,0.00098425
-7.41079372,-3.73708200,-3.96776600,3.92162900,0.00036909
-7.33079372,-3.90625000,-3.93700800,3.92162900,0.00003076
-7.25079372,-3.90625000,-3.92162900,3.93700800,0.00003076
-7.17079372,-3.73708200,-3.92162900,3.96776600,0.00036909
-7.09079372,-3.44488200,-3.93700800,4.02928100,0.00098425
-7.01079372,-3.01427100,-3.93700800,4.10617600,0.00184547
-6.93079371,-2.52214600,-3.95238700,4.18307100,0.00286048
-6.85079371,-1.96850400,-3.95238700,4.25996500,0.00396777
-6.77079371,-1.43024100,-3.95238700,4.29072300,0.00501353
-6.69079371,-0.92273620,-3.93700800,4.27534400,0.00602854
-6.61079371,-0.49212600,-3.92162900,4.19845000,0.00688976
-6.53079371,-0.13841040,-3.92162900,4.02928100,0.00756644
-6.45079371,0.10765260,-3.92162900,3.78321800,0.00805856
-6.37079371,0.27682080,-3.92162900,3.44488200,0.00839690
-6.29079371,0.33833660,-3.93700800,3.01427100,0.00855069
-6.21079370,0.35371550,-3.95238700,2.50676700,0.00858145
-6.13079370,0.30757870,-3.95238700,1.98388300,0.00851993
-6.05079370,0.23068400,-3.95238700,1.43024100,0.00836614
-5.97079370,0.16916830,-3.95238700,0.92273620,0.00821235
-5.89079370,0.09227362,-3.93700800,0.49212600,0.00805856
-5.81079370,0.04613681,-3.92162900,0.18454720,0.00793553
-5.73079370,0.01537894,-3.92162900,0.01537894,0.00787402
-5.65079370,0.00000000,-3.92162900,0.01537894,0.00784326
-5.57079370,-0.01537894,-3.92162900,0.18454720,0.00784326
-5.49079369,0.00000000,-3.93700800,0.49212600,0.00787402
-5.41079369,0.00000000,-3.95238700,0.92273620,0.00787402
-5.33079369,0.00000000,-3.95238700,1.43024100,0.00790477
-5.25079369,0.00000000,-3.95238700,1.98388300,0.00790477
-5.17079369,0.00000000,-3.95238700,2.50676700,0.00787402
-5.09079369,0.00000000,-3.93700800,3.01427100,0.00787402
-5.01079369,0.00000000,-3.92162900,3.44488200,0.00784326
-4.93079369,0.00000000,-3.92162900,3.78321800,0.00784326
-4.85079369,0.00000000,-3.92162900,4.02928100,0.00787402
-4.77079369,0.00000000,-3.92162900,4.19845000,0.00793553
-4.69079368,0.00000000,-3.93700800,4.27534400,0.00805856
-4.61079368,0.00000000,-3.95238700,4.29072300,0.00821235
-4.53079368,0.00000000,-3.95238700,4.25996500,0.00836614
-4.45079368,0.00000000,-3.95238700,4.18307100,0.00851993
-4.37079368,0.00000000,-3.95238700,4.10617600,0.00858145
-4.29079368,0.00000000,-3.93700800,4.02928100,0.00855069
-4.21079368,0.00000000,-3.92162900,3.96776600,0.00839690
-4.13079368,0.00000000,-3.92162900,3.92162900,0.00805856
-4.05079368,0.00000000,-3.92162900,3.92162900,0.00756644
-3.97079367,0.00000000,-3.92162900,3.96776600,0.00688976
-3.89079367,0.00000000,-3.93700800,4.02928100,0.00602854
-3.81079367,0.00000000,-3.95238700,4.10617600,0.00501353
-3.73079367,0.00000000,-3.95238700,4.18307100,0.00396777
-3.65079367,0.00000000,-3.95238700,4.25996500,0.00286048
-3.57079367,0.00000000,-3.95238700,4.29072300,0.00184547
-3.49079367,0.00000000,-3.93700800,4.27534400,0.00098425
-3.41079367,-0.01537894,-3.92162900,4.18307100,0.00033834
-3.33079367,0.00000000,-3.92162900,4.02928100,0.00003076
-3.25079366,0.01537894,-3.92162900,3.79859700,0.00006152
-3.17079366,0.04613681,-3.92162900,3.49101900,0.00046137
-3.09079366,0.09227362,-3.93700800,3.10654500,0.00116880
-3.01079366,0.16916830,-3.95238700,2.67593500,0.00218381
-2.93079366,0.23068400,-3.95238700,2.21456700,0.00335261
-2.85079366,0.30757870,-3.95238700,1.73782000,0.00455217
-2.77079366,0.35371550,-3.95238700,1.27645200,0.00572097
-2.69079366,0.33833660,-3.93700800,0.83046260,0.00670522
-2.61079366,0.27682080,-3.92162900,0.46136810,0.00741265
-2.53079366,0.10765260,-3.92162900,0.13841040,0.00778174
-2.45079365,-0.13841040,-3.92162900,-0.12303150,0.00778174
-2.37079365,-0.49212600,-3.92162900,-0.30757870,0.00741265
-2.29079365,-0.92273620,-3.93700800,-0.43061020,0.00670522
-2.21079365,-1.43024100,-3.95238700,-0.50750490,0.00572097
-2.13079365,-1.96850400,-3.95238700,-0.53826270,0.00455217
-2.05079365,-2.52214600,-3.95238700,-0.53826270,0.00335261
-1.97079365,-3.01427100,-3.95238700,-0.49212600,0.00218381
-1.89079365,-3.42950300,-3.93700800,-0.39985230,0.00116880
-1.81079365,-3.73708200,-3.92162900,-0.26144190,0.00046137
-1.73079364,-3.89087100,-3.92162900,-0.09227362,0.00006152
-1.65079364,-3.90625000,-3.92162900,0.09227362,0.00003076
-1.57079364,-3.78321800,-3.92162900,0.24606300,0.00033834
-1.49079364,-3.53715500,-3.93700800,0.36909450,0.00098425
-1.41079364,-3.18344000,-3.95238700,0.46136810,0.00184547
-1.33079364,-2.75283000,-3.95238700,0.55364170,0.00286048
-1.25079364,-2.27608300,-3.95238700,0.69205210,0.00396777
-1.17079364,-1.78395700,-3.95238700,1.07652500,0.00501353
-1.09079364,-1.27645200,-3.93700800,1.83009300,0.00602854
-1.01079363,-0.76894680,-3.92162900,2.78358700,0.00688976
-0.93079363,-0.26144190,-3.92162900,3.64480800,0.00756644
-0.85079363,0.26144190,-3.92162900,4.04466000,0.00805856
-0.77079363,0.79970470,-3.92162900,3.69094500,0.00839690
-0.69079363,1.36872500,-3.93700800,2.44525100,0.00855069
-0.61079363,1.93774600,-3.95238700,0.39985230,0.00858145
-0.53079363,2.52214600,-3.95238700,-1.96850400,0.00851993
-0.45079363,3.06040800,-3.95238700,-3.90625000,0.00836614
-0.37079363,3.52177600,-3.95238700,-4.27534400,0.00821235
-0.29079363,3.82935500,-3.93700800,-1.81471400,0.00805856
-0.21079362,3.98314500,-3.92162900,4.61368100,0.00793553
-0.13079362,3.98314500,-3.92162900,15.90182000,0.00784326
-0.05079362,3.82935500,-3.92162900,32.54183000,0.00784326
0.02920638,3.55253400,-3.92162900,54.50295000,0.00793553
0.10920638,3.16806100,-3.93700800,81.20078000,0.00805856
0.18920638,2.72207200,-3.95238700,111.48190000,0.00821235
0.26920638,2.19918800,-3.95238700,143.71620000,0.00836614
0.34920638,1.58403000,-3.95238700,175.95040000,0.00851993
0.42920638,0.73818890,-3.95238700,206.13930000,0.00858145
0.50920639,-0.44598910,-3.93700800,232.32960000,0.00855069
0.58920639,-1.84547200,-3.93700800,252.86050000,0.00836614
0.66920639,-3.27571300,-3.92162900,266.56310000,0.00805856
0.74920639,-4.49065000,-3.90625000,272.85310000,0.00759720
0.82920639,-5.27497500,-3.89087100,271.79200000,0.00698204
0.90920639,-5.50565900,-3.84473400,264.01020000,0.00621309
0.98920639,-5.25959600,-3.78321800,250.58440000,0.00535187
1.06920639,-4.81360700,-3.72170300,232.92940000,0.00442913
1.14920639,-4.62906000,-3.64480800,212.59840000,0.00347564
1.22920639,-5.64407000,-3.61405000,191.06790000,0.00252215
1.30920640,-8.71985600,-3.64480800,169.59890000,0.00156865
1.38920640,-14.27165000,-3.73708200,149.14490000,0.00076895
1.46920640,-22.43787000,-3.86011300,130.32110000,0.00018455
1.54920640,-33.03395000,-3.98314500,113.34280000,-0.00006152
1.62920640,-45.64468000,-4.07541800,98.14837000,0.00009227
1.70920640,-59.74717000,-4.10617600,84.44574000,0.00064592
1.78920640,-74.81853000,-4.07541800,71.85040000,0.00159941
1.86920640,-90.48965000,-4.02928100,60.00861000,0.00270669
1.94920640,-106.65290000,-4.02928100,48.61282000,0.00378322
2.02920641,-123.73890000,-4.30610200,37.57074000,0.00430610
2.10920641,-142.30130000,-5.01353300,26.94390000,0.00393701
2.18920641,-162.54000000,-6.07468000,16.96297000,0.00270669
2.26920641,-184.51650000,-7.27423700,7.95091000,0.00092274
2.34920641,-208.09240000,-8.35076200,0.24606300,-0.00089198
2.42920641,-232.89860000,-9.07357200,-5.92089000,-0.00230684
2.50920641,-258.41230000,-9.27349900,-10.41154000,-0.00307579
2.58920641,-284.03360000,-8.99667800,-13.30278000,-0.00313730
2.66920641,-309.11660000,-8.53530900,-14.80992000,-0.00301427
2.74920642,-333.16930000,-8.42765700,-15.44045000,-0.00362943
2.82920642,-355.99160000,-9.67335100,-15.68651000,-0.00658219
2.90920642,-377.49140000,-13.24126000,-15.77879000,-0.01362574
2.98920642,-397.39170000,-19.71580000,-15.80955000,-0.02583661
3.06920642,-415.40050000,-29.32763000,-15.77879000,-0.04376845
3.14920642,-431.27150000,-41.99987000,-15.54810000,-0.06745202
3.22920642,-444.74350000,-57.31730000,-14.99446000,-0.09639518
3.30920642,-455.64710000,-74.72625000,-14.01021000,-0.12958290
3.38920642,-463.87480000,-93.56544000,-12.53383000,-0.16578490
3.46920642,-469.44200000,-113.23510000,-10.61147000,-0.20367860
3.54920643,-472.44090000,-133.33540000,-8.44303500,-0.24209520
3.62920643,-473.24060000,-153.94320000,-6.22846900,-0.28041950
3.70920643,-472.17950000,-175.24300000,-4.12155500,-0.31825170
3.78920643,-469.53430000,-197.25020000,-2.24532500,-0.35513040
3.86920643,-465.42810000,-219.90340000,-0.66129420,-0.39071730
3.94920643,-459.90710000,-243.03330000,0.58439960,-0.42470470
4.02920643,-452.97120000,-266.39400000,1.49175700,-0.45684670
4.10920643,-444.51280000,-289.58540000,2.10691400,-0.48683560
4.18920643,-434.47030000,-312.17700000,2.49138800,-0.51439470
4.26920644,-422.78230000,-333.70750000,2.72207200,-0.53918550
4.34920644,-409.43340000,-353.73090000,2.86048200,-0.56086980
4.42920644,-394.56200000,-372.04720000,2.98351400,-0.57917080
4.50920644,-378.59860000,-388.50270000,3.15268200,-0.59381150
4.58920644,-362.08170000,-402.78970000,3.39874500,-0.60439220
4.66920644,-345.50320000,-414.70840000,3.72170300,-0.61057450
4.74920644,-329.29380000,-424.01260000,4.13693400,-0.61202020
4.82920644,-313.73030000,-430.57950000,4.59830200,-0.60857530
4.90920644,-298.93580000,-434.31650000,5.07504900,-0.60030140
4.98920645,-284.77180000,-435.25460000,5.55179600,-0.58747540
5.06920645,-270.97690000,-433.53220000,5.99778500,-0.57055850
5.14920645,-256.99740000,-429.31840000,6.39763700,-0.55028910
5.22920645,-242.34130000,-422.93610000,6.78211100,-0.52743600
5.30920645,-227.07000000,-414.78530000,7.13582600,-0.50295280
5.38920645,-211.42960000,-405.14270000,7.44340500,-0.47760830
5.46920645,-195.88150000,-394.20830000,7.72022600,-0.45201770
5.54920645,-180.87170000,-382.15120000,7.95091000,-0.42667320
5.62920645,-166.84610000,-369.00220000,8.15083600,-0.40169780
5.70920645,-154.03540000,-354.77670000,8.28924700,-0.37715300
5.78920646,-142.48590000,-339.50540000,8.39689900,-0.35285430
5.86920646,-132.01280000,-323.17300000,8.44303500,-0.32861710
5.94920646,-121.97030000,-305.81010000,8.44303500,-0.30407240
6.02920646,-111.77410000,-287.52460000,8.39689900,-0.27909700
6.10920646,-101.28570000,-268.79300000,8.30462600,-0.25412150
6.18920646,-90.56656000,-250.15380000,8.16621500,-0.22979210
6.26920646,-79.81668000,-232.17580000,7.96628900,-0.20684670
6.34920646,-69.34362000,-215.30510000,7.70484700,-0.18599290
6.42920646,-59.48573000,-199.86470000,7.39726800,-0.16778420
6.50920647,-50.45829000,-185.93140000,7.04355200,-0.15234380
6.58920647,-42.38435000,-173.38210000,6.61294300,-0.13957920
6.66920647,-35.21776000,-161.94020000,6.16695300,-0.12896780
6.74920647,-28.66634000,-150.94430000,5.69020700,-0.11955590
6.82920647,-22.42249000,-139.90220000,5.21345900,-0.11032850
6.90920647,-16.50160000,-128.76780000,4.76747000,-0.10110110
6.98920647,-10.98056000,-117.71040000,4.36761800,-0.09181225
7.06920647,-6.09005900,-107.03740000,4.04466000,-0.08276944
7.14920647,-1.98388300,-97.16412000,3.81397600,-0.07434178
7.22920648,1.13804100,-88.41350000,3.66018700,-0.06699065
7.30920648,3.21419800,-80.97009000,3.59867100,-0.06096211
7.38920648,4.27534400,-74.88004000,3.59867100,-0.05634842
7.46920648,4.44451300,-69.94341000,3.64480800,-0.05299582
7.54920648,4.04466000,-65.63730000,3.72170300,-0.05041216
7.62920648,3.36798700,-61.43885000,3.78321800,-0.04795153
7.70920648,2.53752400,-57.20964000,3.84473400,-0.04549089
7.78920648,1.61478800,-52.98043000,3.89087100,-0.04296875
7.86920648,0.56902060,-48.95115000,3.90625000,-0.04044661
7.94920648,-0.63053640,-45.32173000,3.92162900,-0.03804749
8.02920649,-2.04539800,-42.35359000,3.93700800,-0.03598671
8.10920649,-3.73708200,-40.18516000,3.93700800,-0.03435655
8.18920649,-5.70558500,-38.81643000,3.95238700,-0.03321850
8.26920649,-7.90477300,-38.10900000,3.95238700,-0.03254183
8.34920649,-10.22699000,-37.69378000,3.95238700,-0.03211122
8.42920649,-12.53383000,-37.10937000,3.95238700,-0.03177289
8.50920649,-14.76378000,-36.14050000,3.93700800,-0.03149606
8.58920649,-16.87069000,-34.63336000,3.92162900,-0.03131152
8.66920649,-18.74692000,-32.58797000,3.92162900,-0.03131152
8.74920650,-20.40785000,-30.06582000,3.92162900,-0.03152682
8.82920650,-21.79195000,-27.17458000,3.92162900,-0.03204970
8.90920650,-22.92999000,-24.06804000,3.93700800,-0.03291092
8.98920650,-23.82197000,-20.86922000,3.95238700,-0.03407972
9.06920650,-24.51402000,-17.68578000,3.95238700,-0.03543307
9.14920650,-25.06767000,-14.47158000,3.95238700,-0.03678642
9.22920650,-25.54441000,-11.22662000,3.95238700,-0.03795522
9.30920650,-26.00578000,-7.96628900,3.93700800,-0.03881644
9.38920650,-26.51329000,-4.72133400,3.92162900,-0.03930856
9.46920651,-27.11306000,-1.53789400,3.92162900,-0.03937008
9.54920651,-27.82050000,1.50713600,3.92162900,-0.03897022
9.62920651,-28.63558000,4.39837600,3.92162900,-0.03820128
9.70920651,-29.49680000,7.08968900,3.93700800,-0.03709400
9.78920651,-30.37340000,9.58107800,3.95238700,-0.03570989
9.86920651,-31.18848000,11.82640000,3.95238700,-0.03411048
9.94920651,-31.88053000,13.87180000,3.95238700,-0.03235728
10.02920651,-32.32653000,15.70189000,3.95238700,-0.03045030
10.10920651,-32.49569000,17.27055000,3.93700800,-0.02845103
10.18920651,-32.31114000,18.50086000,3.92162900,-0.02642101
10.26920652,-31.77288000,19.34670000,3.92162900,-0.02448327
10.34920652,-30.89628000,19.76193000,3.92162900,-0.02260704
10.42920652,-29.69673000,19.74655000,3.92162900,-0.02091535
10.50920652,-28.23573000,19.28519000,3.93700800,-0.01931594
10.58920652,-26.52866000,18.43934000,3.95238700,-0.01787033
10.66920652,-24.65244000,17.25517000,3.95238700,-0.01648622
10.74920652,-22.60704000,15.82493000,3.95238700,-0.01513287
10.82920652,-20.40785000,14.22552000,3.95238700,-0.01368725
10.90920652,-18.05487000,12.48770000,3.93700800,-0.01214936
10.98920653,-15.57886000,10.67298000,3.92162900,-0.01048843
11.06920653,-13.04134000,8.79675100,3.92162900,-0.00873524
11.14920653,-10.48843000,6.88976300,3.92162900,-0.00695128
11.22920653,-7.93553100,4.98277500,3.92162900,-0.00516732
11.30920653,-5.42876500,3.06040800,3.93700800,-0.00341412
11.38920653,-2.98351400,1.15342000,3.95238700,-0.00178396
11.46920653,-0.61515740,-0.75356790,3.95238700,-0.00021531
11.54920653,1.70706200,-2.66055600,3.95238700,0.00129183
11.62920653,3.99852300,-4.59830200,3.95238700,0.00276821
11.70920653,6.28998500,-6.61294300,3.93700800,0.00427534
