Time,Channel A,Channel B,Channel C,Channel D
(ns),(mV),(mV),(mV),(V)

-15.29599983,0.12303150,0.00000000,3.92162900,0.00784326
-15.21599982,0.30757870,0.03075787,3.92162900,0.00784326
-15.13599982,0.43061020,0.09227362,3.93700800,0.00787402
-15.05599982,0.50750490,0.15378940,3.95238700,0.00790477
-14.97599982,0.53826270,0.23068400,3.95238700,0.00790477
-14.89599982,0.53826270,0.30757870,3.95238700,0.00790477
-14.81599982,0.50750490,0.35371550,3.95238700,0.00790477
-14.73599982,0.44598910,0.33833660,3.93700800,0.00787402
-14.65599982,0.32295760,0.27682080,3.92162900,0.00784326
-14.57599982,0.12303150,0.10765260,3.92162900,0.00784326
-14.49599981,-0.15378940,-0.13841040,3.92162900,0.00784326
-14.41599981,-0.53826270,-0.49212600,3.92162900,0.00784326
-14.33599981,-1.03038900,-0.92273620,3.93700800,0.00787402
-14.25599981,-1.59940900,-1.43024100,3.95238700,0.00790477
-14.17599981,-2.21456700,-1.96850400,3.95238700,0.00790477
-14.09599981,-2.82972400,-2.52214600,3.95238700,0.00790477
-14.01599981,-3.36798700,-3.01427100,3.93700800,0.00790477
-13.93599981,-3.78321800,-3.44488200,3.93700800,0.00787402
-13.85599981,-4.01390200,-3.73708200,3.92162900,0.00784326
-13.77599980,-4.01390200,-3.90625000,3.92162900,0.00784326
-13.69599980,-3.76783900,-3.90625000,3.93700800,0.00784326
-13.61599980,-3.26033400,-3.73708200,3.96776600,0.00784326
-13.53599980,-2.52214600,-3.44488200,4.02928100,0.00787402
-13.45599980,-1.58403000,-3.01427100,4.10617600,0.00790477
-13.37599980,-0.53826270,-2.52214600,4.18307100,0.00790477
-13.29599980,0.53826270,-1.96850400,4.25996500,0.00790477
-13.21599980,1.59940900,-1.43024100,4.29072300,0.00790477
-13.13599980,2.52214600,-0.93811510,4.27534400,0.00787402
-13.05599980,3.26033400,-0.49212600,4.18307100,0.00784326
-12.97599979,3.76783900,-0.13841040,4.02928100,0.00784326
-12.89599979,3.99852300,0.12303150,3.79859700,0.00784326
-12.81599979,3.96776600,0.30757870,3.49101900,0.00784326
-12.73599979,3.69094500,0.43061020,3.10654500,0.00787402
-12.65599979,3.19881900,0.50750490,2.67593500,0.00790477
-12.57599979,2.58366100,0.53826270,2.21456700,0.00790477
-12.49599979,1.90698800,0.53826270,1.73782000,0.00790477
-12.41599979,1.24569400,0.50750490,1.27645200,0.00790477
-12.33599979,0.67667320,0.43061020,0.83046260,0.00787402
-12.25599978,0.26144190,0.30757870,0.46136810,0.00784326
-12.17599978,0.03075787,0.12303150,0.13841040,0.00784326
-12.09599978,0.01537894,-0.13841040,-0.12303150,0.00784326
-12.01599978,0.21530510,-0.49212600,-0.30757870,0.00784326
-11.93599978,0.58439960,-0.93811510,-0.43061020,0.00787402
-11.85599978,1.07652500,-1.43024100,-0.50750490,0.00790477
-11.77599978,1.67630400,-1.96850400,-0.53826270,0.00790477
-11.69599978,2.27608300,-2.52214600,-0.53826270,0.00790477
-11.61599978,2.86048200,-3.01427100,-0.50750490,0.00790477
-11.53599977,3.35260800,-3.44488200,-0.43061020,0.00787402
-11.45599977,3.70632400,-3.73708200,-0.30757870,0.00784326
-11.37599977,3.89087100,-3.90625000,-0.12303150,0.00784326
-11.29599977,3.90625000,-3.90625000,0.13841040,0.00784326
-11.21599977,3.75246000,-3.73708200,0.46136810,0.00784326
-11.13599977,3.44488200,-3.44488200,0.83046260,0.00787402
-11.05599977,3.02965000,-3.01427100,1.27645200,0.00790477
-10.97599977,2.52214600,-2.52214600,1.73782000,0.00790477
-10.89599977,1.96850400,-1.96850400,2.21456700,0.00790477
-10.81599977,1.43024100,-1.43024100,2.67593500,0.00790477
-10.73599976,0.93811510,-0.92273620,3.10654500,0.00787402
-10.65599976,0.49212600,-0.49212600,3.49101900,0.00784326
-10.57599976,0.13841040,-0.13841040,3.79859700,0.00784326
-10.49599976,-0.12303150,0.10765260,4.01390200,0.00784326
-10.41599976,-0.30757870,0.27682080,4.15231300,0.00784326
-10.33599976,-0.43061020,0.33833660,4.18307100,0.00787402
-10.25599976,-0.50750490,0.35371550,4.12155500,0.00790477
-10.17599976,-0.53826270,0.30757870,4.01390200,0.00790477
-10.09599976,-0.53826270,0.23068400,3.89087100,0.00790477
-10.01599975,-0.50750490,0.15378940,3.76783900,0.00790477
-9.93599975,-0.43061020,0.09227362,3.69094500,0.00787402
-9.85599975,-0.30757870,0.03075787,3.70632400,0.00784326
-9.77599975,-0.12303150,0.00000000,3.81397600,0.00784326
-9.69599975,0.13841040,0.00000000,4.06003900,0.00784326
-9.61599975,0.49212600,0.03075787,4.39837600,0.00784326
-9.53599975,0.93811510,0.09227362,4.85974400,0.00787402
-9.45599975,1.43024100,0.15378940,5.36724900,0.00790477
-9.37599975,1.96850400,0.23068400,5.92089000,0.00790477
-9.29599974,2.52214600,0.30757870,6.47453200,0.00790477
-9.21599974,3.01427100,0.33833660,6.96665800,0.00790477
-9.13599974,3.44488200,0.33833660,7.38188900,0.00787402
-9.05599974,3.73708200,0.26144190,7.67408900,0.00784326
-8.97599974,3.90625000,0.10765260,7.82787800,0.00784326
-8.89599974,3.90625000,-0.12303150,7.82787800,0.00784326
-8.81599974,3.73708200,-0.44598910,7.67408900,0.00784326
-8.73599974,3.44488200,-0.83046260,7.38188900,0.00787402
-8.65599974,3.01427100,-1.26107300,6.96665800,0.00790477
-8.57599974,2.52214600,-1.73782000,6.47453200,0.00790477
-8.49599973,1.96850400,-2.21456700,5.92089000,0.00790477
-8.41599973,1.43024100,-2.67593500,5.38262700,0.00790477
-8.33599973,0.92273620,-3.10654500,4.85974400,0.00787402
-8.25599973,0.49212600,-3.49101900,4.41375400,0.00784326
-8.17599973,0.13841040,-3.79859700,4.06003900,0.00784326
-8.09599973,-0.10765260,-4.02928100,3.81397600,0.00784326
-8.01599973,-0.27682080,-4.18307100,3.66018700,0.00784326
-7.93599973,-0.33833660,-4.27534400,3.59867100,0.00787402
-7.85599973,-0.35371550,-4.29072300,3.59867100,0.00790477
-7.77599972,-0.30757870,-4.25996500,3.64480800,0.00790477
-7.69599972,-0.23068400,-4.18307100,3.72170300,0.00790477
-7.61599972,-0.16916830,-4.10617600,3.78321800,0.00787402
-7.53599972,-0.09227362,-4.02928100,3.84473400,0.00787402
-7.45599972,-0.04613681,-3.96776600,3.89087100,0.00784326
-7.37599972,-0.01537894,-3.93700800,3.90625000,0.00784326
-7.29599972,0.00000000,-3.92162900,3.92162900,0.00787402
-7.21599972,0.01537894,-3.92162900,3.93700800,0.00793553
-7.13599972,0.00000000,-3.93700800,3.93700800,0.00805856
-7.05599972,0.00000000,-3.93700800,3.95238700,0.00821235
-6.97599971,0.00000000,-3.95238700,3.95238700,0.00836614
-6.89599971,0.00000000,-3.95238700,3.95238700,0.00851993
-6.81599971,0.00000000,-3.93700800,3.95238700,0.00858145
-6.73599971,0.00000000,-3.93700800,3.93700800,0.00855069
-6.65599971,0.00000000,-3.92162900,3.92162900,0.00839690
-6.57599971,0.00000000,-3.92162900,3.92162900,0.00805856
-6.49599971,0.00000000,-3.93700800,3.92162900,0.00756644
-6.41599971,0.00000000,-3.96776600,3.92162900,0.00688976
-6.33599971,0.00000000,-4.02928100,3.93700800,0.00602854
-6.25599970,0.00000000,-4.10617600,3.95238700,0.00501353
-6.17599970,0.00000000,-4.18307100,3.95238700,0.00396777
-6.09599970,0.00000000,-4.25996500,3.95238700,0.00286048
-6.01599970,0.00000000,-4.29072300,3.95238700,0.00184547
-5.93599970,0.00000000,-4.27534400,3.93700800,0.00098425
-5.85599970,0.01537894,-4.19845000,3.92162900,0.00036909
-5.77599970,0.00000000,-4.02928100,3.92162900,0.00003076
-5.69599970,-0.01537894,-3.78321800,3.92162900,0.00003076
-5.61599970,-0.04613681,-3.44488200,3.92162900,0.00036909
-5.53599969,-0.09227362,-3.01427100,3.93700800,0.00098425
-5.45599969,-0.16916830,-2.50676700,3.95238700,0.00184547
-5.37599969,-0.23068400,-1.98388300,3.95238700,0.00286048
-5.29599969,-0.30757870,-1.43024100,3.95238700,0.00396777
-5.21599969,-0.33833660,-0.92273620,3.95238700,0.00501353
-5.13599969,-0.33833660,-0.49212600,3.93700800,0.00602854
-5.05599969,-0.26144190,-0.16916830,3.92162900,0.00688976
-4.97599969,-0.10765260,-0.01537894,3.92162900,0.00756644
-4.89599969,0.12303150,-0.03075787,3.92162900,0.00805856
-4.81599969,0.44598910,-0.23068400,3.92162900,0.00839690
-4.73599968,0.83046260,-0.58439960,3.93700800,0.00855069
-4.65599968,1.26107300,-1.09190400,3.95238700,0.00858145
-4.57599968,1.73782000,-1.67630400,3.95238700,0.00851993
-4.49599968,2.21456700,-2.27608300,3.95238700,0.00836614
-4.41599968,2.67593500,-2.86048200,3.95238700,0.00821235
-4.33599968,3.10654500,-3.33722900,3.93700800,0.00805856
-4.25599968,3.49101900,-3.69094500,3.92162900,0.00793553
-4.17599968,3.79859700,-3.89087100,3.92162900,0.00787402
-4.09599968,4.02928100,-3.92162900,3.92162900,0.00784326
-4.01599967,4.18307100,-3.79859700,3.92162900,0.00784326
-3.93599967,4.27534400,-3.53715500,3.93700800,0.00787402
-3.85599967,4.29072300,-3.18344000,3.95238700,0.00787402
-3.77599967,4.25996500,-2.75283000,3.95238700,0.00790477
-3.69599967,4.18307100,-2.27608300,3.95238700,0.00790477
-3.61599967,4.10617600,-1.78395700,3.95238700,0.00790477
-3.53599967,4.02928100,-1.27645200,3.93700800,0.00787402
-3.45599967,3.96776600,-0.76894680,3.93700800,0.00784326
-3.37599967,3.92162900,-0.26144190,3.92162900,0.00784326
-3.29599966,3.92162900,0.26144190,3.90625000,0.00784326
-3.21599966,3.96776600,0.79970470,3.89087100,0.00784326
-3.13599966,4.02928100,1.36872500,3.84473400,0.00787402
-3.05599966,4.10617600,1.93774600,3.78321800,0.00790477
-2.97599966,4.18307100,2.52214600,3.72170300,0.00790477
-2.89599966,4.25996500,3.06040800,3.64480800,0.00790477
-2.81599966,4.29072300,3.52177600,3.59867100,0.00790477
-2.73599966,4.27534400,3.86011300,3.59867100,0.00787402
-2.65599966,4.19845000,4.04466000,3.66018700,0.00784326
-2.57599966,4.02928100,4.01390200,3.81397600,0.00784326
-2.49599965,3.78321800,3.78321800,4.06003900,0.00784326
-2.41599965,3.44488200,3.33722900,4.41375400,0.00784326
-2.33599965,3.01427100,2.70669300,4.85974400,0.00787402
-2.25599965,2.50676700,1.90698800,5.38262700,0.00790477
-2.17599965,1.98388300,1.01501000,5.92089000,0.00790477
-2.09599965,1.43024100,0.06151574,6.47453200,0.00790477
-2.01599965,0.92273620,-0.89197830,6.96665800,0.00790477
-1.93599965,0.49212600,-1.84547200,7.39726800,0.00787402
-1.85599965,0.16916830,-2.72207200,7.70484700,0.00784326
-1.77599964,0.01537894,-3.53715500,7.84325700,0.00784326
-1.69599964,0.03075787,-4.27534400,7.79712100,0.00784326
-1.61599964,0.23068400,-4.95201700,7.53567900,0.00784326
-1.53599964,0.58439960,-5.53641700,7.08968900,0.00787402
-1.45599964,1.09190400,-6.07468000,6.47453200,0.00790477
-1.37599964,1.67630400,-6.53604800,5.76710100,0.00790477
-1.29599964,2.27608300,-6.95127900,5.01353300,0.00790477
-1.21599964,2.86048200,-7.28961600,4.44451300,0.00787402
-1.13599964,3.35260800,-7.58181600,4.18307100,0.00787402
-1.05599963,3.70632400,-7.76636300,4.12155500,0.00784326
-0.97599963,3.89087100,-7.85863600,4.04466000,0.00784326
-0.89599963,3.90625000,-7.79712100,3.69094500,0.00787402
-0.81599963,3.75246000,-7.61257400,2.82972400,0.00793553
-0.73599963,3.44488200,-7.27423700,1.33796700,0.00805856
-0.65599963,3.02965000,-6.79749000,-0.70743110,0.00821235
-0.57599963,2.52214600,-6.22846900,-2.98351400,0.00836614
-0.49599963,1.96850400,-5.62869100,-4.85974400,0.00851993
-0.41599963,1.43024100,-5.02891200,-5.42876500,0.00858145
-0.33599963,0.90735720,-4.52140800,-3.69094500,0.00855069
-0.25599962,0.46136810,-4.15231300,1.19955700,0.00839690
-0.17599962,0.12303150,-3.95238700,9.84251900,0.00805856
-0.09599962,-0.07689468,-3.95238700,22.56090000,0.00756644
-0.01599962,-0.13841040,-4.15231300,39.24704000,0.00688976
0.06400038,-0.06151574,-4.52140800,59.40883000,0.00602854
0.14400038,0.13841040,-5.02891200,82.20041000,0.00501353
0.22400038,0.39985230,-5.62869100,106.45300000,0.00396777
0.30400038,0.67667320,-6.22846900,130.89010000,0.00286048
0.38400038,0.79970470,-6.79749000,154.15840000,0.00184547
0.46400039,0.69205210,-7.28961600,175.10460000,0.00098425
0.54400039,0.39985230,-7.62795300,192.75960000,0.00036909
0.62400039,0.09227362,-7.81250000,206.50840000,0.00003076
0.70400039,-0.03075787,-7.82787800,216.05870000,0.00003076
0.78400039,0.18454720,-7.67408900,221.45670000,0.00036909
0.86400039,0.84584150,-7.38188900,223.05610000,0.00098425
0.94400039,1.87623000,-6.96665800,221.36440000,0.00184547
1.02400039,3.07578700,-6.47453200,217.01220000,0.00286048
1.10400039,3.99852300,-5.92089000,210.55300000,0.00396777
1.18400039,3.90625000,-5.38262700,202.46370000,0.00501353
1.26400040,2.03002000,-4.89050100,193.08260000,0.00596703
1.34400040,-1.90698800,-4.45989200,182.56340000,0.00679749
1.42400040,-7.98166800,-4.09079700,170.96760000,0.00750492
1.50400040,-15.99409000,-3.75246000,158.21850000,0.00818159
1.58400040,-25.52903000,-3.44488200,144.28520000,0.00882751
1.66400040,-36.17126000,-3.12192400,129.16770000,0.00950418
1.74400040,-47.53629000,-2.78358700,112.97370000,0.01021161
1.82400040,-59.39345000,-2.46063000,95.97993000,0.01088829
1.90400040,-71.81963000,-2.19918800,78.61712000,0.01141117
1.98400041,-85.39924000,-2.13767200,61.43885000,0.01150344
2.06400041,-100.82430000,-2.42987200,45.09104000,0.01094980
2.14400041,-118.43320000,-2.98351400,30.18885000,0.00984252
2.22400041,-138.30280000,-3.62942900,17.31668000,0.00848917
2.30400041,-160.29470000,-4.15231300,6.84362600,0.00728962
2.38400041,-184.02440000,-4.35223900,-1.06114600,0.00658219
2.46400041,-208.93820000,-4.10617600,-6.45915300,0.00658219
2.54400041,-234.35960000,-3.47564000,-9.67335100,0.00722810
2.62400041,-259.65800000,-2.69131400,-11.14973000,0.00805856
2.70400042,-284.32580000,-2.24532500,-11.58034000,0.00827387
2.78400042,-308.24000000,-2.98351400,-11.58034000,0.00645915
2.86400042,-331.38530000,-5.75172200,-11.51882000,0.00113804
2.94400042,-353.54640000,-10.96518000,-11.56496000,-0.00842766
3.02400042,-374.47710000,-18.73154000,-11.70337000,-0.02260704
3.10400042,-393.91610000,-28.89702000,-11.81102000,-0.04121555
3.18400042,-411.58650000,-41.03100000,-11.71875000,-0.06363804
3.26400042,-427.22680000,-54.65674000,-11.27276000,-0.08907481
3.34400042,-440.63730000,-69.26672000,-10.35002000,-0.11654160
3.42400042,-451.69470000,-84.49187000,-8.93516300,-0.14526940
3.50400043,-460.35310000,-100.25530000,-7.24347900,-0.17470470
3.58400043,-466.82760000,-116.94140000,-5.47490100,-0.20503200
3.66400043,-471.36440000,-135.10390000,-3.73708200,-0.23658960
3.74400043,-474.02500000,-154.98890000,-2.10691400,-0.26956200
3.82400043,-474.88620000,-176.73470000,-0.66129420,-0.30391850
3.90400043,-473.87120000,-200.23370000,0.61515740,-0.33962850
3.98400043,-470.91840000,-225.17840000,1.72244100,-0.37635340
4.06400043,-465.93560000,-251.06110000,2.70669300,-0.41347810
4.14400043,-458.87670000,-277.25150000,3.58329200,-0.45026450
4.22400044,-449.74160000,-303.04190000,4.38299700,-0.48578990
4.30400044,-438.56110000,-327.77130000,5.13656500,-0.51900830
4.38400044,-425.59670000,-351.02420000,5.84399600,-0.54915110
4.46400044,-411.27890000,-372.47780000,6.48991100,-0.57547980
4.54400044,-396.09990000,-391.73220000,7.08968900,-0.59716410
4.62400044,-380.47490000,-408.44920000,7.61257400,-0.61361960
4.70400044,-364.78840000,-422.36710000,8.04318300,-0.62441560
4.78400044,-349.24030000,-433.33230000,8.35076200,-0.62939830
4.86400044,-333.89210000,-441.25240000,8.51993000,-0.62869100
4.94400045,-318.66690000,-446.18910000,8.56606700,-0.62269320
5.02400045,-303.39560000,-448.26520000,8.51993000,-0.61202020
5.10400045,-287.64760000,-447.65010000,8.38152000,-0.59731790
5.18400045,-271.14600000,-444.71270000,8.21235200,-0.57944760
5.26400045,-254.07540000,-439.74530000,8.05856200,-0.55923970
5.34400045,-236.83560000,-432.99400000,7.93553100,-0.53727850
5.42400045,-219.94950000,-424.53550000,7.85863600,-0.51405630
5.50400045,-203.94010000,-414.44700000,7.84325700,-0.48981910
5.58400045,-189.20700000,-402.71280000,7.87401500,-0.46469000
5.66400045,-175.96580000,-389.31770000,7.95091000,-0.43860730
5.74400046,-164.17010000,-374.30790000,8.04318300,-0.41157110
5.82400046,-153.54330000,-357.77560000,8.13545700,-0.38361220
5.90400046,-143.36240000,-339.85910000,8.21235200,-0.35473050
5.98400046,-132.96630000,-320.88150000,8.22773100,-0.32514150
6.06400046,-122.17030000,-301.44250000,8.21235200,-0.29558320
6.14400046,-111.00520000,-282.18810000,8.12007800,-0.26691680
6.22400046,-99.71703000,-263.73340000,7.95091000,-0.24003440
6.30400046,-88.64419000,-246.53970000,7.72022600,-0.21567420
6.38400046,-78.14037000,-230.93010000,7.41264700,-0.19438980
6.46400047,-68.45164000,-216.90450000,7.04355200,-0.17627340
6.54400047,-59.71641000,-204.30920000,6.62832200,-0.16107900
6.62400047,-51.91929000,-192.75960000,6.16695300,-0.14819140
6.70400047,-44.67581000,-181.56370000,5.69020700,-0.13659570
6.78400047,-37.67839000,-170.16790000,5.21345900,-0.12524610
6.86400047,-30.88090000,-158.47990000,4.76747000,-0.11386570
6.94400047,-24.39099000,-146.65350000,4.36761800,-0.10251600
7.02400047,-18.42397000,-135.04240000,4.04466000,-0.09150468
7.10400047,-13.16437000,-124.03110000,3.81397600,-0.08135457
7.18400048,-8.79675100,-113.98870000,3.66018700,-0.07246555
7.26400048,-5.42876500,-105.16120000,3.59867100,-0.06520669
7.34400048,-3.06040800,-97.56396000,3.59867100,-0.05963952
7.42400048,-1.58403000,-91.05868000,3.64480800,-0.05561024
7.50400048,-0.69205210,-85.12241000,3.72170300,-0.05247293
7.58400048,-0.10765260,-79.21690000,3.78321800,-0.04952018
7.66400048,0.24606300,-73.26525000,3.84473400,-0.04659818
7.74400048,0.38447340,-67.31360000,3.89087100,-0.04361467
7.82400048,0.21530510,-61.54650000,3.90625000,-0.04063115
7.90400048,-0.32295760,-56.27153000,3.92162900,-0.03789370
7.98400049,-1.32258800,-51.68861000,3.93700800,-0.03552534
8.06400049,-2.84510300,-47.96690000,3.93700800,-0.03371063
8.14400049,-4.84436500,-45.13718000,3.95238700,-0.03254183
8.22400049,-7.24347900,-43.06102000,3.95238700,-0.03192667
8.30400049,-9.82714000,-41.35396000,3.95238700,-0.03164985
8.38400049,-12.39542000,-39.57000000,3.95238700,-0.03146530
8.46400049,-14.82529000,-37.55536000,3.93700800,-0.03131152
8.54400049,-17.00910000,-35.24852000,3.92162900,-0.03125000
8.62400049,-18.83920000,-32.69562000,3.92162900,-0.03128076
8.70400050,-20.28482000,-30.05044000,3.92162900,-0.03152682
8.78400050,-21.34596000,-27.45140000,3.92162900,-0.03208046
8.86400050,-22.02264000,-25.03691000,3.93700800,-0.03294168
8.94400050,-22.40711000,-22.86848000,3.95238700,-0.03407972
9.02400050,-22.54552000,-20.96149000,3.95238700,-0.03543307
9.10400050,-22.54552000,-19.11602000,3.95238700,-0.03678642
9.18400050,-22.51476000,-17.11676000,3.95238700,-0.03795522
9.26400050,-22.57628000,-14.87143000,3.93700800,-0.03881644
9.34400050,-22.79158000,-12.30315000,3.92162900,-0.03930856
9.42400051,-23.22219000,-9.41190900,3.92162900,-0.03937008
9.50400051,-23.89887000,-6.21309000,3.92162900,-0.03897022
9.58400051,-24.80622000,-2.79896600,3.92162900,-0.03820128
9.66400051,-25.86737000,0.73818890,3.93700800,-0.03709400
9.74400051,-27.03617000,4.30610200,3.95238700,-0.03570989
9.82400051,-28.20497000,7.82787800,3.95238700,-0.03411048
9.90400051,-29.29687000,11.22662000,3.95238700,-0.03235728
9.98400051,-30.20423000,14.48696000,3.95238700,-0.03045030
10.06400051,-30.88090000,17.50123000,3.93700800,-0.02845103
10.14400051,-31.29613000,20.19254000,3.92162900,-0.02642101
10.22400052,-31.41917000,22.51476000,3.92162900,-0.02448327
10.30400052,-31.28075000,24.43713000,3.92162900,-0.02260704
10.38400052,-30.89628000,25.94427000,3.92162900,-0.02091535
10.46400052,-30.32726000,27.02079000,3.93700800,-0.01931594
10.54400052,-29.57369000,27.71284000,3.95238700,-0.01787033
10.62400052,-28.66634000,28.03580000,3.95238700,-0.01648622
10.70400052,-27.57443000,28.03580000,3.95238700,-0.01513287
10.78400052,-26.26722000,27.71284000,3.95238700,-0.01368725
10.86400052,-24.68319000,27.02079000,3.93700800,-0.01214936
10.94400053,-22.83772000,25.94427000,3.92162900,-0.01048843
11.02400053,-20.74619000,24.43713000,3.92162900,-0.00873524
11.10400053,-18.42397000,22.51476000,3.92162900,-0.00695128
11.18400053,-15.90182000,20.19254000,3.92162900,-0.00516732
11.26400053,-13.22589000,17.50123000,3.93700800,-0.00341412
11.34400053,-10.45768000,14.48696000,3.95238700,-0.00178396
11.42400053,-7.62795300,11.22662000,3.95238700,-0.00021531
11.50400053,-4.76747000,7.82787800,3.95238700,0.00129183
11.58400053,-1.89160900,4.32148100,3.95238700,0.00276821
11.66400053,0.98425190,0.78432570,3.93700800,0.00427534
11.74400054,3.81397600,-2.73745100,3.92162900,0.00575172
11.82400054,6.53604800,-6.16695300,3.92162900,0.00716658
