Time,Channel A,Channel B,Channel C,Channel D
(ns),(mV),(mV),(mV),(V)

-15.41818183,-3.93700800,-3.79859700,3.92162900,0.00003076
-15.33818182,-3.96776600,-3.49101900,3.92162900,0.00036909
-15.25818182,-4.02928100,-3.10654500,3.93700800,0.00098425
-15.17818182,-4.10617600,-2.67593500,3.95238700,0.00184547
-15.09818182,-4.18307100,-2.21456700,3.95238700,0.00286048
-15.01818182,-4.25996500,-1.73782000,3.95238700,0.00396777
-14.93818182,-4.29072300,-1.27645200,3.95238700,0.00501353
-14.85818182,-4.27534400,-0.83046260,3.93700800,0.00602854
-14.77818182,-4.18307100,-0.46136810,3.92162900,0.00688976
-14.69818182,-4.02928100,-0.13841040,3.92162900,0.00756644
-14.61818181,-3.79859700,0.12303150,3.92162900,0.00805856
-14.53818181,-3.49101900,0.30757870,3.92162900,0.00839690
-14.45818181,-3.10654500,0.43061020,3.93700800,0.00855069
-14.37818181,-2.67593500,0.50750490,3.95238700,0.00858145
-14.29818181,-2.21456700,0.53826270,3.95238700,0.00851993
-14.21818181,-1.73782000,0.53826270,3.95238700,0.00836614
-14.13818181,-1.27645200,0.50750490,3.95238700,0.00821235
-14.05818181,-0.83046260,0.43061020,3.93700800,0.00805856
-13.97818181,-0.46136810,0.30757870,3.92162900,0.00793553
-13.89818180,-0.13841040,0.12303150,3.92162900,0.00787402
-13.81818180,0.12303150,-0.13841040,3.92162900,0.00784326
-13.73818180,0.30757870,-0.49212600,3.92162900,0.00784326
-13.65818180,0.43061020,-0.93811510,3.93700800,0.00787402
-13.57818180,0.50750490,-1.43024100,3.95238700,0.00787402
-13.49818180,0.53826270,-1.96850400,3.95238700,0.00790477
-13.41818180,0.53826270,-2.52214600,3.95238700,0.00790477
-13.33818180,0.50750490,-3.01427100,3.95238700,0.00790477
-13.25818180,0.43061020,-3.44488200,3.93700800,0.00787402
-13.17818180,0.30757870,-3.73708200,3.92162900,0.00784326
-13.09818179,0.12303150,-3.90625000,3.92162900,0.00784326
-13.01818179,-0.13841040,-3.90625000,3.92162900,0.00784326
-12.93818179,-0.49212600,-3.73708200,3.92162900,0.00784326
-12.85818179,-0.93811510,-3.44488200,3.93700800,0.00787402
-12.77818179,-1.43024100,-3.01427100,3.95238700,0.00790477
-12.69818179,-1.96850400,-2.52214600,3.95238700,0.00790477
-12.61818179,-2.52214600,-1.96850400,3.95238700,0.00790477
-12.53818179,-3.02965000,-1.43024100,3.93700800,0.00790477
-12.45818179,-3.44488200,-0.93811510,3.93700800,0.00787402
-12.37818178,-3.75246000,-0.49212600,3.92162900,0.00784326
-12.29818178,-3.90625000,-0.13841040,3.92162900,0.00784326
-12.21818178,-3.89087100,0.12303150,3.93700800,0.00784326
-12.13818178,-3.70632400,0.30757870,3.96776600,0.00784326
-12.05818178,-3.35260800,0.43061020,4.02928100,0.00787402
-11.97818178,-2.86048200,0.50750490,4.10617600,0.00790477
-11.89818178,-2.27608300,0.53826270,4.18307100,0.00790477
-11.81818178,-1.67630400,0.53826270,4.25996500,0.00790477
-11.73818178,-1.09190400,0.50750490,4.29072300,0.00790477
-11.65818177,-0.58439960,0.43061020,4.29072300,0.00787402
-11.57818177,-0.23068400,0.30757870,4.21382900,0.00787402
-11.49818177,-0.03075787,0.12303150,4.04466000,0.00784326
-11.41818177,-0.01537894,-0.13841040,3.76783900,0.00781250
-11.33818177,-0.16916830,-0.49212600,3.39874500,0.00778174
-11.25818177,-0.49212600,-0.93811510,2.92199800,0.00768947
-11.17818177,-0.92273620,-1.43024100,2.35297700,0.00756644
-11.09818177,-1.43024100,-1.96850400,1.73782000,0.00744341
-11.01818177,-1.98388300,-2.52214600,1.12266200,0.00728962
-10.93818177,-2.50676700,-3.02965000,0.58439960,0.00719734
-10.85818176,-2.99889300,-3.44488200,0.15378940,0.00716658
-10.77818176,-3.42950300,-3.75246000,-0.09227362,0.00728962
-10.69818176,-3.78321800,-3.90625000,-0.09227362,0.00759720
-10.61818176,-4.04466000,-3.89087100,0.15378940,0.00815084
-10.53818176,-4.24458600,-3.70632400,0.67667320,0.00891978
-10.45818176,-4.36761800,-3.35260800,1.41486200,0.00990404
-10.37818176,-4.45989200,-2.86048200,2.35297700,0.01107283
-10.29818176,-4.49065000,-2.27608300,3.41412400,0.01233391
-10.21818176,-4.49065000,-1.67630400,4.49065000,0.01356422
-10.13818175,-4.44451300,-1.09190400,5.53641700,0.01464075
-10.05818175,-4.36761800,-0.58439960,6.45915300,0.01544045
-9.97818175,-4.22920700,-0.23068400,7.18196300,0.01587106
-9.89818175,-4.04466000,-0.03075787,7.68946800,0.01587106
-9.81818175,-3.78321800,-0.01537894,7.93553100,0.01537894
-9.73818175,-3.47564000,-0.16916830,7.93553100,0.01436393
-9.65818175,-3.10654500,-0.49212600,7.72022600,0.01291831
-9.57818175,-2.67593500,-0.92273620,7.32037400,0.01107283
-9.49818175,-2.21456700,-1.43024100,6.78211100,0.00898130
-9.41818174,-1.73782000,-1.98388300,6.16695300,0.00682825
-9.33818174,-1.26107300,-2.50676700,5.53641700,0.00470596
-9.25818174,-0.83046260,-3.01427100,4.95201700,0.00282972
-9.17818174,-0.44598910,-3.44488200,4.45989200,0.00135335
-9.09818174,-0.12303150,-3.78321800,4.07541800,0.00030758
-9.01818174,0.10765260,-4.02928100,3.79859700,-0.00018455
-8.93818174,0.26144190,-4.19845000,3.64480800,-0.00018455
-8.85818174,0.33833660,-4.27534400,3.58329200,0.00030758
-8.77818174,0.33833660,-4.29072300,3.59867100,0.00116880
-8.69818174,0.30757870,-4.25996500,3.64480800,0.00224533
-8.61818173,0.23068400,-4.18307100,3.72170300,0.00347564
-8.53818173,0.16916830,-4.10617600,3.78321800,0.00470596
-8.45818173,0.09227362,-4.02928100,3.84473400,0.00584400
-8.37818173,0.04613681,-3.96776600,3.89087100,0.00679749
-8.29818173,0.01537894,-3.92162900,3.90625000,0.00753568
-8.21818173,0.00000000,-3.92162900,3.92162900,0.00808932
-8.13818173,-0.01537894,-3.96776600,3.93700800,0.00842766
-8.05818173,0.00000000,-4.02928100,3.93700800,0.00858145
-7.97818173,0.00000000,-4.10617600,3.95238700,0.00858145
-7.89818172,0.00000000,-4.18307100,3.95238700,0.00851993
-7.81818172,0.00000000,-4.25996500,3.95238700,0.00836614
-7.73818172,0.00000000,-4.29072300,3.93700800,0.00821235
-7.65818172,0.00000000,-4.29072300,3.93700800,0.00805856
-7.57818172,0.00000000,-4.21382900,3.92162900,0.00793553
-7.49818172,0.00000000,-4.04466000,3.92162900,0.00787402
-7.41818172,0.00000000,-3.76783900,3.93700800,0.00784326
-7.33818172,0.00000000,-3.39874500,3.96776600,0.00784326
-7.25818172,0.00000000,-2.92199800,4.02928100,0.00787402
-7.17818172,0.00000000,-2.35297700,4.10617600,0.00787402
-7.09818171,0.00000000,-1.73782000,4.18307100,0.00790477
-7.01818171,0.00000000,-1.12266200,4.25996500,0.00790477
-6.93818171,0.00000000,-0.56902060,4.29072300,0.00790477
-6.85818171,0.00000000,-0.15378940,4.27534400,0.00787402
-6.77818171,-0.01537894,0.09227362,4.19845000,0.00784326
-6.69818171,0.00000000,0.09227362,4.02928100,0.00784326
-6.61818171,0.01537894,-0.16916830,3.78321800,0.00784326
-6.53818171,0.04613681,-0.70743110,3.44488200,0.00784326
-6.45818171,0.09227362,-1.52251500,3.01427100,0.00787402
-6.37818170,0.16916830,-2.52214600,2.50676700,0.00790477
-6.29818170,0.23068400,-3.64480800,1.98388300,0.00790477
-6.21818170,0.30757870,-4.79822800,1.43024100,0.00790477
-6.13818170,0.35371550,-5.87475300,0.92273620,0.00790477
-6.05818170,0.33833660,-6.78211100,0.49212600,0.00787402
-5.97818170,0.27682080,-7.44340500,0.18454720,0.00784326
-5.89818170,0.10765260,-7.79712100,0.01537894,0.00784326
-5.81818170,-0.13841040,-7.81250000,0.01537894,0.00784326
-5.73818170,-0.49212600,-7.50492100,0.18454720,0.00784326
-5.65818169,-0.92273620,-6.88976300,0.49212600,0.00787402
-5.57818169,-1.43024100,-6.04392200,0.92273620,0.00790477
-5.49818169,-1.96850400,-5.04429100,1.43024100,0.00790477
-5.41818169,-2.52214600,-3.95238700,1.98388300,0.00790477
-5.33818169,-3.01427100,-2.86048200,2.50676700,0.00790477
-5.25818169,-3.44488200,-1.86085100,3.01427100,0.00787402
-5.17818169,-3.73708200,-0.98425190,3.44488200,0.00784326
-5.09818169,-3.90625000,-0.27682080,3.78321800,0.00784326
-5.01818169,-3.90625000,0.23068400,4.02928100,0.00784326
-4.93818169,-3.73708200,0.58439960,4.19845000,0.00784326
-4.85818168,-3.44488200,0.78432570,4.27534400,0.00787402
-4.77818168,-3.01427100,0.86122040,4.29072300,0.00790477
-4.69818168,-2.52214600,0.84584150,4.25996500,0.00790477
-4.61818168,-1.96850400,0.78432570,4.18307100,0.00790477
-4.53818168,-1.43024100,0.67667320,4.10617600,0.00787402
-4.45818168,-0.93811510,0.53826270,4.02928100,0.00787402
-4.37818168,-0.49212600,0.35371550,3.96776600,0.00784326
-4.29818168,-0.13841040,0.13841040,3.93700800,0.00784326
-4.21818168,0.12303150,-0.15378940,3.92162900,0.00787402
-4.13818167,0.30757870,-0.50750490,3.92162900,0.00793553
-4.05818167,0.43061020,-0.93811510,3.93700800,0.00805856
-3.97818167,0.50750490,-1.43024100,3.93700800,0.00821235
-3.89818167,0.53826270,-1.96850400,3.95238700,0.00836614
-3.81818167,0.53826270,-2.52214600,3.95238700,0.00851993
-3.73818167,0.50750490,-3.01427100,3.95238700,0.00858145
-3.65818167,0.43061020,-3.44488200,3.93700800,0.00855069
-3.57818167,0.30757870,-3.73708200,3.92162900,0.00839690
-3.49818167,0.12303150,-3.90625000,3.92162900,0.00805856
-3.41818166,-0.13841040,-3.90625000,3.92162900,0.00756644
-3.33818166,-0.46136810,-3.73708200,3.92162900,0.00688976
-3.25818166,-0.83046260,-3.44488200,3.93700800,0.00602854
-3.17818166,-1.27645200,-3.01427100,3.95238700,0.00501353
-3.09818166,-1.73782000,-2.52214600,3.95238700,0.00396777
-3.01818166,-2.21456700,-1.96850400,3.95238700,0.00286048
-2.93818166,-2.67593500,-1.43024100,3.95238700,0.00184547
-2.85818166,-3.10654500,-0.92273620,3.93700800,0.00098425
-2.77818166,-3.47564000,-0.49212600,3.93700800,0.00036909
-2.69818166,-3.78321800,-0.13841040,3.92162900,0.00003076
-2.61818165,-4.04466000,0.10765260,3.90625000,0.00003076
-2.53818165,-4.22920700,0.27682080,3.89087100,0.00036909
-2.45818165,-4.36761800,0.33833660,3.84473400,0.00098425
-2.37818165,-4.44451300,0.35371550,3.78321800,0.00184547
-2.29818165,-4.49065000,0.30757870,3.72170300,0.00286048
-2.21818165,-4.49065000,0.23068400,3.64480800,0.00396777
-2.13818165,-4.45989200,0.16916830,3.59867100,0.00501353
-2.05818165,-4.36761800,0.09227362,3.59867100,0.00599779
-1.97818165,-4.24458600,0.04613681,3.66018700,0.00685901
-1.89818164,-4.04466000,0.01537894,3.81397600,0.00756644
-1.81818164,-3.78321800,0.00000000,4.06003900,0.00808932
-1.73818164,-3.42950300,-0.01537894,4.41375400,0.00848917
-1.65818164,-2.99889300,0.00000000,4.85974400,0.00873524
-1.57818164,-2.50676700,0.00000000,5.38262700,0.00891978
-1.49818164,-1.98388300,0.00000000,5.92089000,0.00898130
-1.41818164,-1.43024100,0.00000000,6.47453200,0.00898130
-1.33818164,-0.92273620,0.00000000,7.02817400,0.00891978
-1.25818164,-0.49212600,0.00000000,7.59719500,0.00873524
-1.17818163,-0.18454720,0.01537894,7.99704600,0.00848917
-1.09818163,-0.01537894,0.00000000,8.02780400,0.00808932
-1.01818163,-0.01537894,-0.01537894,7.48954200,0.00756644
-0.93818163,-0.18454720,-0.04613681,6.24384800,0.00685901
-0.85818163,-0.49212600,-0.09227362,4.24458600,0.00599779
-0.77818163,-0.92273620,-0.16916830,1.61478800,0.00501353
-0.69818163,-1.43024100,-0.23068400,-1.33796700,0.00396777
-0.61818163,-1.98388300,-0.30757870,-4.10617600,0.00286048
-0.53818163,-2.52214600,-0.35371550,-5.93626900,0.00184547
-0.45818163,-3.02965000,-0.33833660,-6.05930100,0.00098425
-0.37818162,-3.46026100,-0.27682080,-3.95238700,0.00033834
-0.29818162,-3.79859700,-0.10765260,0.66129420,0.00003076
-0.21818162,-4.01390200,0.13841040,7.81250000,0.00006152
-0.13818162,-4.10617600,0.49212600,17.28592000,0.00046137
-0.05818162,-4.09079700,0.92273620,28.71247000,0.00116880
0.02181838,-3.96776600,1.43024100,41.56926000,0.00218381
0.10181838,-3.78321800,1.96850400,55.31803000,0.00335261
0.18181838,-3.58329200,2.52214600,69.48203000,0.00455217
0.26181838,-3.46026100,3.01427100,83.75368000,0.00572097
0.34181839,-3.50639700,3.42950300,97.96382000,0.00670522
0.42181839,-3.66018700,3.73708200,112.08170000,0.00741265
0.50181839,-3.86011300,3.89087100,126.23030000,0.00778174
0.58181839,-3.95238700,3.90625000,140.53270000,0.00778174
0.66181839,-3.86011300,3.78321800,155.06580000,0.00741265
0.74181839,-3.50639700,3.53715500,169.78340000,0.00670522
0.82181839,-2.90661900,3.18344000,184.39340000,0.00572097
0.90181839,-2.21456700,2.75283000,198.43440000,0.00455217
0.98181839,-1.69168300,2.27608300,211.15280000,0.00335261
1.06181839,-1.84547200,1.76857800,221.62590000,0.00215305
1.14181840,-3.16806100,1.24569400,228.90010000,0.00116880
1.22181840,-5.75172200,0.72281000,232.03740000,0.00043061
1.30181840,-9.51956200,0.23068400,230.33030000,0.00003076
1.38181840,-14.19476000,-0.21530510,223.33290000,0.00006152
1.46181840,-19.45435000,-0.63053640,211.02980000,0.00052288
1.54181840,-24.96001000,-0.98425190,193.82070000,0.00135335
1.62181840,-30.52719000,-1.29183100,172.52090000,0.00249139
1.70181840,-36.26353000,-1.56865100,148.28370000,0.00381398
1.78181840,-42.49200000,-1.84547200,122.50860000,0.00516732
1.86181841,-50.10457000,-2.21456700,96.64124000,0.00630536
1.94181841,-60.08550000,-2.73745100,72.11183000,0.00704355
2.02181841,-72.94230000,-3.30647100,50.07381000,0.00741265
2.10181841,-88.92101000,-3.78321800,31.43455000,0.00768947
2.18181841,-107.92940000,-3.96776600,16.62463000,0.00808932
2.26181841,-129.55220000,-3.69094500,5.70558500,0.00885827
2.34181841,-153.18960000,-2.89124000,-1.64554600,0.01018086
2.42181841,-178.07270000,-1.63016700,-6.02854300,0.01196481
2.50181841,-203.46330000,-0.15378940,-8.22773100,0.01387180
2.58181842,-228.74630000,1.12266200,-9.13508800,0.01534818
2.66181842,-253.75250000,1.44562000,-9.55032000,0.01522515
2.74181842,-278.45100000,0.12303150,-9.93479300,0.01245694
2.82181842,-302.62670000,-3.16806100,-10.53457000,0.00661294
2.90181842,-326.00270000,-8.44303500,-11.33428000,-0.00230684
2.98181842,-348.34830000,-15.50197000,-12.18012000,-0.01399483
3.06181842,-369.32510000,-24.02190000,-12.82603000,-0.02780512
3.14181842,-388.68720000,-33.54146000,-13.02596000,-0.04309178
3.22181842,-406.15770000,-43.70694000,-12.62611000,-0.05933194
3.30181842,-421.56740000,-54.34916000,-11.59572000,-0.07627953
3.38181843,-434.79330000,-65.54503000,-10.16548000,-0.09418061
3.46181843,-446.00450000,-77.87893000,-8.62758300,-0.11398870
3.54181843,-455.37030000,-92.02756000,-7.12044700,-0.13687250
3.62181843,-462.93670000,-108.36000000,-5.72096400,-0.16360110
3.70181843,-468.59620000,-127.06080000,-4.47527100,-0.19463580
3.78181843,-472.25640000,-148.05300000,-3.39874500,-0.23003810
3.86181843,-473.74810000,-171.01380000,-2.47600900,-0.26943900
3.94181843,-472.96380000,-195.42010000,-1.64554600,-0.31191560
4.02181843,-469.81110000,-220.58010000,-0.86122040,-0.35626850
4.10181844,-464.29010000,-245.78620000,-0.10765260,-0.40095960
4.18181844,-456.53910000,-270.37710000,0.64591530,-0.44454350
4.26181844,-446.83500000,-293.99910000,1.38410400,-0.48572840
4.34181844,-435.65450000,-316.39080000,2.12229300,-0.52343750
4.42181844,-423.44360000,-337.19860000,2.86048200,-0.55659450
4.50181844,-410.58690000,-356.11460000,3.56791300,-0.58446110
4.58181844,-397.36100000,-372.87770000,4.25996500,-0.60648380
4.66181844,-383.91970000,-387.30310000,4.92125900,-0.62250860
4.74181844,-370.27860000,-399.25260000,5.52103800,-0.63272020
4.82181845,-356.34530000,-408.67980000,6.05930100,-0.63742620
4.90181845,-341.93520000,-415.60040000,6.53604800,-0.63718010
4.98181845,-326.74090000,-420.10640000,6.95127900,-0.63256650
5.06181845,-310.54680000,-422.44400000,7.28961600,-0.62426180
5.14181845,-293.61460000,-422.82850000,7.56643700,-0.61285070
5.22181845,-276.35950000,-421.36750000,7.75098400,-0.59870200
5.30181845,-259.31960000,-418.09170000,7.84325700,-0.58196970
5.38181845,-242.98720000,-412.98600000,7.81250000,-0.56274600
5.46181845,-227.76200000,-405.95780000,7.65871000,-0.54096950
5.54181845,-213.82870000,-396.97650000,7.36651000,-0.51664000
5.62181846,-201.14110000,-386.07280000,6.96665800,-0.48991140
5.70181846,-189.40700000,-373.35440000,6.47453200,-0.46096830
5.78181846,-177.93430000,-358.97510000,5.92089000,-0.43017960
5.86181846,-166.09250000,-343.31940000,5.38262700,-0.39812990
5.94181846,-153.72780000,-326.94080000,4.85974400,-0.36583410
6.02181846,-140.93260000,-310.39310000,4.41375400,-0.33427660
6.10181846,-127.99890000,-294.18370000,4.06003900,-0.30434920
6.18181846,-115.29590000,-278.71250000,3.81397600,-0.27682090
6.26181846,-103.17730000,-264.17940000,3.66018700,-0.25212230
6.34181847,-91.95065000,-250.59980000,3.59867100,-0.23031500
6.42181847,-81.70828000,-237.85060000,3.59867100,-0.21109130
6.50181847,-72.41941000,-225.62440000,3.64480800,-0.19392840
6.58181847,-63.68418000,-213.39810000,3.72170300,-0.17781130
6.66181847,-55.11811000,-200.84890000,3.78321800,-0.16194020
6.74181847,-46.72121000,-188.02290000,3.84473400,-0.14625370
6.82181847,-38.58575000,-175.21220000,3.89087100,-0.13093630
6.90181847,-30.98856000,-162.80140000,3.92162900,-0.11651080
6.98181847,-24.16031000,-151.25180000,3.92162900,-0.10359250
7.06181848,-18.31631000,-140.87100000,3.89087100,-0.09264272
7.14181848,-13.62574000,-131.85900000,3.84473400,-0.08399975
7.22181848,-10.05782000,-124.20030000,3.78321800,-0.07766363
7.30181848,-7.48954200,-117.63350000,3.72170300,-0.07329601
7.38181848,-5.56717500,-111.54340000,3.64480800,-0.06997416
7.46181848,-3.95238700,-105.37650000,3.59867100,-0.06689838
7.54181848,-2.53752400,-98.94807000,3.59867100,-0.06369956
7.62181848,-1.30720900,-92.30437000,3.66018700,-0.06028543
7.70181848,-0.35371550,-85.62991000,3.81397600,-0.05668676
7.78181848,0.24606300,-79.20152000,4.06003900,-0.05318036
7.86181849,0.33833660,-73.26525000,4.41375400,-0.05001230
7.94181849,-0.10765260,-68.03641000,4.85974400,-0.04739789
8.02181849,-1.12266200,-63.56115000,5.38262700,-0.04542938
8.10181849,-2.61441900,-59.76255000,5.92089000,-0.04410679
8.18181849,-4.38299700,-56.27153000,6.47453200,-0.04315330
8.26181849,-6.21309000,-52.71899000,6.96665800,-0.04226132
8.34181849,-8.01242500,-48.98191000,7.38188900,-0.04133858
8.42181849,-9.67335100,-45.09104000,7.67408900,-0.04044661
8.50181849,-11.11897000,-41.15403000,7.82787800,-0.03958539
8.58181850,-12.34929000,-37.35543000,7.82787800,-0.03890871
8.66181850,-13.34892000,-33.87980000,7.67408900,-0.03844734
8.74181850,-14.14862000,-30.83477000,7.38188900,-0.03829355
8.82181850,-14.76378000,-28.28186000,6.96665800,-0.03841658
8.90181850,-15.30204000,-26.14419000,6.47453200,-0.03878568
8.98181850,-15.77879000,-24.16031000,5.92089000,-0.03918553
9.06181850,-16.28629000,-22.02264000,5.38262700,-0.03949311
9.14181850,-16.94759000,-19.59276000,4.85974400,-0.03961614
9.22181850,-17.80881000,-16.76304000,4.41375400,-0.03958539
9.30181851,-18.94685000,-13.51808000,4.06003900,-0.03937008
9.38181851,-20.36171000,-9.93479300,3.81397600,-0.03906250
9.46181851,-22.03802000,-6.10543700,3.66018700,-0.03869341
9.54181851,-23.94500000,-2.15305100,3.59867100,-0.03829355
9.62181851,-25.97502000,1.81471400,3.59867100,-0.03789370
9.70181851,-28.03580000,5.67482800,3.64480800,-0.03746309
9.78181851,-30.00430000,9.42728800,3.72170300,-0.03690945
9.86181851,-31.77288000,13.02596000,3.78321800,-0.03617126
9.94181851,-33.26464000,16.42470000,3.84473400,-0.03512549
10.02181851,-34.37192000,19.54663000,3.89087100,-0.03383366
10.10181852,-35.09473000,22.29946000,3.90625000,-0.03226501
10.18181852,-35.41769000,24.66781000,3.92162900,-0.03045030
10.26181852,-35.34079000,26.59018000,3.93700800,-0.02842028
10.34181852,-34.92556000,28.08194000,3.93700800,-0.02620571
10.42181852,-34.21814000,29.15846000,3.95238700,-0.02389887
10.50181852,-33.23388000,29.85052000,3.95238700,-0.02153051
10.58181852,-32.00356000,30.18885000,3.95238700,-0.01906988
10.66181852,-30.52719000,30.20423000,3.95238700,-0.01654774
10.74181852,-28.80475000,29.89665000,3.93700800,-0.01399483
10.82181853,-26.85162000,29.21998000,3.92162900,-0.01147269
10.90181853,-24.69857000,28.14345000,3.92162900,-0.00901206
10.98181853,-22.33022000,26.66708000,3.92162900,-0.00670522
11.06181853,-19.80807000,24.77547000,3.92162900,-0.00461368
11.14181853,-17.14751000,22.49938000,3.93700800,-0.00273745
11.22181853,-14.39468000,19.86959000,3.95238700,-0.00107653
11.30181853,-11.58034000,16.99372000,3.95238700,0.00039985
11.38181853,-8.71985600,13.91794000,3.95238700,0.00175320
11.46181853,-5.82861700,10.76525000,3.95238700,0.00310655
11.54181853,-2.92199800,7.58181600,3.93700800,0.00445989
