Time,Channel A,Channel B,Channel C,Channel D
(ns),(mV),(mV),(mV),(V)

-15.57894783,-0.15378940,0.10765260,0.03075787,0.00784326
-15.49894782,-0.53826270,0.27682080,0.23068400,0.00784326
-15.41894782,-1.01501000,0.33833660,0.58439960,0.00787402
-15.33894782,-1.59940900,0.35371550,1.09190400,0.00790477
-15.25894782,-2.21456700,0.30757870,1.67630400,0.00790477
-15.17894782,-2.82972400,0.23068400,2.27608300,0.00790477
-15.09894782,-3.36798700,0.16916830,2.86048200,0.00790477
-15.01894782,-3.78321800,0.09227362,3.35260800,0.00787402
-14.93894782,-3.99852300,0.04613681,3.70632400,0.00784326
-14.85894782,-4.01390200,0.01537894,3.89087100,0.00784326
-14.77894781,-3.76783900,0.00000000,3.90625000,0.00784326
-14.69894781,-3.30647100,-0.01537894,3.75246000,0.00784326
-14.61894781,-2.61441900,0.00000000,3.44488200,0.00787402
-14.53894781,-1.75319900,0.00000000,3.02965000,0.00790477
-14.45894781,-0.78432570,0.00000000,2.52214600,0.00790477
-14.37894781,0.24606300,0.00000000,1.96850400,0.00790477
-14.29894781,1.24569400,0.00000000,1.43024100,0.00790477
-14.21894781,2.16843000,0.00000000,0.93811510,0.00787402
-14.13894781,2.98351400,-0.01537894,0.49212600,0.00784326
-14.05894780,3.64480800,0.00000000,0.13841040,0.00784326
-13.97894780,4.15231300,0.01537894,-0.12303150,0.00784326
-13.89894780,4.50602900,0.04613681,-0.30757870,0.00784326
-13.81894780,4.70595500,0.09227362,-0.43061020,0.00787402
-13.73894780,4.79822800,0.16916830,-0.50750490,0.00790477
-13.65894780,4.79822800,0.23068400,-0.53826270,0.00790477
-13.57894780,4.73671200,0.30757870,-0.53826270,0.00790477
-13.49894780,4.61368100,0.33833660,-0.50750490,0.00787402
-13.41894780,4.45989200,0.32295760,-0.43061020,0.00787402
-13.33894780,4.27534400,0.24606300,-0.30757870,0.00784326
-13.25894779,4.04466000,0.10765260,-0.12303150,0.00784326
-13.17894779,3.78321800,-0.12303150,0.13841040,0.00787402
-13.09894779,3.46026100,-0.39985230,0.49212600,0.00793553
-13.01894779,3.09116600,-0.73818890,0.93811510,0.00805856
-12.93894779,2.67593500,-1.10728300,1.43024100,0.00821235
-12.85894779,2.21456700,-1.50713600,1.96850400,0.00836614
-12.77894779,1.73782000,-1.90698800,2.52214600,0.00851993
-12.69894779,1.26107300,-2.32221900,3.02965000,0.00858145
-12.61894779,0.83046260,-2.75283000,3.44488200,0.00855069
-12.53894778,0.44598910,-3.19881900,3.75246000,0.00839690
-12.45894778,0.12303150,-3.67556500,3.90625000,0.00805856
-12.37894778,-0.10765260,-4.18307100,3.89087100,0.00756644
-12.29894778,-0.26144190,-4.72133400,3.70632400,0.00688976
-12.21894778,-0.33833660,-5.29035400,3.35260800,0.00602854
-12.13894778,-0.33833660,-5.89013200,2.86048200,0.00501353
-12.05894778,-0.30757870,-6.47453200,2.27608300,0.00396777
-11.97894778,-0.23068400,-7.01279500,1.67630400,0.00286048
-11.89894778,-0.16916830,-7.47416300,1.09190400,0.00184547
-11.81894777,-0.10765260,-7.81250000,0.58439960,0.00098425
-11.73894777,-0.04613681,-7.98166800,0.23068400,0.00036909
-11.65894777,-0.01537894,-7.95091000,0.03075787,0.00003076
-11.57894777,0.01537894,-7.67408900,0.01537894,0.00003076
-11.49894777,0.04613681,-7.18196300,0.16916830,0.00036909
-11.41894777,0.10765260,-6.44377400,0.49212600,0.00098425
-11.33894777,0.16916830,-5.53641700,0.92273620,0.00184547
-11.25894777,0.23068400,-4.49065000,1.43024100,0.00286048
-11.17894777,0.30757870,-3.41412400,1.98388300,0.00396777
-11.09894777,0.35371550,-2.35297700,2.50676700,0.00501353
-11.01894776,0.33833660,-1.41486200,3.01427100,0.00599779
-10.93894776,0.27682080,-0.66129420,3.44488200,0.00685901
-10.85894776,0.10765260,-0.15378940,3.78321800,0.00756644
-10.77894776,-0.13841040,0.07689468,4.02928100,0.00808932
-10.69894776,-0.49212600,0.04613681,4.19845000,0.00848917
-10.61894776,-0.92273620,-0.24606300,4.27534400,0.00873524
-10.53894776,-1.43024100,-0.73818890,4.29072300,0.00891978
-10.45894776,-1.96850400,-1.36872500,4.25996500,0.00898130
-10.37894776,-2.52214600,-2.04539800,4.18307100,0.00898130
-10.29894775,-3.01427100,-2.69131400,4.10617600,0.00891978
-10.21894775,-3.42950300,-3.24495600,4.02928100,0.00873524
-10.13894775,-3.73708200,-3.64480800,3.96776600,0.00848917
-10.05894775,-3.89087100,-3.87549200,3.93700800,0.00808932
-9.97894775,-3.90625000,-3.92162900,3.92162900,0.00756644
-9.89894775,-3.78321800,-3.81397600,3.92162900,0.00685901
-9.81894775,-3.53715500,-3.55253400,3.93700800,0.00599779
-9.73894775,-3.18344000,-3.18344000,3.93700800,0.00501353
-9.65894775,-2.75283000,-2.75283000,3.95238700,0.00396777
-9.57894774,-2.27608300,-2.27608300,3.95238700,0.00286048
-9.49894774,-1.78395700,-1.78395700,3.93700800,0.00184547
-9.41894774,-1.26107300,-1.27645200,3.93700800,0.00098425
-9.33894774,-0.75356790,-0.76894680,3.92162900,0.00036909
-9.25894774,-0.24606300,-0.26144190,3.92162900,0.00003076
-9.17894774,0.24606300,0.26144190,3.93700800,0.00003076
-9.09894774,0.75356790,0.79970470,3.96776600,0.00036909
-9.01894774,1.26107300,1.36872500,4.02928100,0.00098425
-8.93894774,1.78395700,1.93774600,4.10617600,0.00184547
-8.85894774,2.27608300,2.52214600,4.18307100,0.00286048
-8.77894773,2.75283000,3.06040800,4.25996500,0.00396777
-8.69894773,3.18344000,3.52177600,4.29072300,0.00501353
-8.61894773,3.53715500,3.87549200,4.27534400,0.00602854
-8.53894773,3.78321800,4.04466000,4.18307100,0.00688976
-8.45894773,3.90625000,4.01390200,4.02928100,0.00756644
-8.37894773,3.89087100,3.76783900,3.79859700,0.00805856
-8.29894773,3.73708200,3.29109200,3.49101900,0.00839690
-8.21894773,3.42950300,2.59904000,3.10654500,0.00855069
-8.13894773,3.01427100,1.75319900,2.67593500,0.00858145
-8.05894772,2.52214600,0.78432570,2.21456700,0.00851993
-7.97894772,1.96850400,-0.24606300,1.73782000,0.00836614
-7.89894772,1.43024100,-1.24569400,1.27645200,0.00821235
-7.81894772,0.92273620,-2.18380900,0.83046260,0.00805856
-7.73894772,0.49212600,-2.99889300,0.46136810,0.00793553
-7.65894772,0.13841040,-3.66018700,0.13841040,0.00787402
-7.57894772,-0.10765260,-4.13693400,-0.12303150,0.00784326
-7.49894772,-0.27682080,-4.45989200,-0.30757870,0.00784326
-7.41894772,-0.33833660,-4.61368100,-0.43061020,0.00787402
-7.33894772,-0.35371550,-4.62906000,-0.50750490,0.00787402
-7.25894771,-0.30757870,-4.56754400,-0.53826270,0.00790477
-7.17894771,-0.23068400,-4.42913300,-0.53826270,0.00790477
-7.09894771,-0.16916830,-4.27534400,-0.50750490,0.00790477
-7.01894771,-0.09227362,-4.12155500,-0.43061020,0.00787402
-6.93894771,-0.04613681,-4.01390200,-0.30757870,0.00784326
-6.85894771,-0.01537894,-3.93700800,-0.12303150,0.00784326
-6.77894771,0.00000000,-3.90625000,0.13841040,0.00784326
-6.69894771,0.01537894,-3.90625000,0.46136810,0.00784326
-6.61894771,0.00000000,-3.92162900,0.83046260,0.00787402
-6.53894770,0.00000000,-3.93700800,1.27645200,0.00790477
-6.45894770,0.00000000,-3.95238700,1.73782000,0.00790477
-6.37894770,0.00000000,-3.95238700,2.21456700,0.00790477
-6.29894770,0.00000000,-3.95238700,2.67593500,0.00790477
-6.21894770,0.00000000,-3.93700800,3.10654500,0.00787402
-6.13894770,0.00000000,-3.92162900,3.47564000,0.00784326
-6.05894770,0.00000000,-3.92162900,3.78321800,0.00784326
-5.97894770,0.00000000,-3.92162900,4.04466000,0.00784326
-5.89894770,0.00000000,-3.92162900,4.22920700,0.00784326
-5.81894769,0.00000000,-3.93700800,4.36761800,0.00787402
-5.73894769,0.00000000,-3.95238700,4.44451300,0.00790477
-5.65894769,0.00000000,-3.95238700,4.49065000,0.00790477
-5.57894769,0.00000000,-3.95238700,4.49065000,0.00790477
-5.49894769,0.00000000,-3.95238700,4.45989200,0.00787402
-5.41894769,0.00000000,-3.93700800,4.36761800,0.00787402
-5.33894769,0.00000000,-3.92162900,4.24458600,0.00784326
-5.25894769,0.00000000,-3.92162900,4.04466000,0.00784326
-5.17894769,0.00000000,-3.92162900,3.78321800,0.00787402
-5.09894769,0.00000000,-3.92162900,3.42950300,0.00793553
-5.01894768,0.00000000,-3.93700800,2.99889300,0.00805856
-4.93894768,0.00000000,-3.95238700,2.50676700,0.00821235
-4.85894768,0.00000000,-3.95238700,1.98388300,0.00836614
-4.77894768,0.00000000,-3.95238700,1.43024100,0.00851993
-4.69894768,0.00000000,-3.95238700,0.92273620,0.00858145
-4.61894768,0.00000000,-3.93700800,0.49212600,0.00855069
-4.53894768,0.00000000,-3.92162900,0.18454720,0.00839690
-4.45894768,0.00000000,-3.92162900,0.01537894,0.00805856
-4.37894768,0.00000000,-3.92162900,0.01537894,0.00756644
-4.29894767,0.00000000,-3.92162900,0.18454720,0.00688976
-4.21894767,0.00000000,-3.93700800,0.49212600,0.00602854
-4.13894767,0.00000000,-3.95238700,0.92273620,0.00501353
-4.05894767,0.00000000,-3.95238700,1.43024100,0.00396777
-3.97894767,0.00000000,-3.95238700,1.98388300,0.00286048
-3.89894767,0.00000000,-3.93700800,2.50676700,0.00184547
-3.81894767,0.00000000,-3.93700800,2.99889300,0.00098425
-3.73894767,0.00000000,-3.92162900,3.42950300,0.00036909
-3.65894767,0.00000000,-3.92162900,3.78321800,0.00003076
-3.57894766,0.00000000,-3.93700800,4.04466000,0.00003076
-3.49894766,0.00000000,-3.96776600,4.24458600,0.00036909
-3.41894766,0.00000000,-4.02928100,4.36761800,0.00098425
-3.33894766,0.00000000,-4.10617600,4.45989200,0.00184547
-3.25894766,0.00000000,-4.18307100,4.49065000,0.00286048
-3.17894766,0.00000000,-4.25996500,4.49065000,0.00396777
-3.09894766,0.00000000,-4.29072300,4.44451300,0.00501353
-3.01894766,0.00000000,-4.27534400,4.36761800,0.00602854
-2.93894766,0.00000000,-4.19845000,4.22920700,0.00688976
-2.85894766,0.00000000,-4.02928100,4.04466000,0.00756644
-2.77894765,0.00000000,-3.78321800,3.78321800,0.00805856
-2.69894765,0.00000000,-3.44488200,3.47564000,0.00839690
-2.61894765,0.00000000,-3.01427100,3.10654500,0.00855069
-2.53894765,0.00000000,-2.50676700,2.67593500,0.00858145
-2.45894765,0.00000000,-1.98388300,2.21456700,0.00851993
-2.37894765,0.00000000,-1.43024100,1.73782000,0.00836614
-2.29894765,0.00000000,-0.92273620,1.27645200,0.00821235
-2.21894765,0.00000000,-0.50750490,0.83046260,0.00805856
-2.13894765,0.01537894,-0.19992620,0.46136810,0.00793553
-2.05894764,0.00000000,-0.03075787,0.13841040,0.00787402
-1.97894764,-0.01537894,-0.01537894,-0.12303150,0.00784326
-1.89894764,-0.04613681,-0.13841040,-0.30757870,0.00784326
-1.81894764,-0.09227362,-0.39985230,-0.43061020,0.00787402
-1.73894764,-0.16916830,-0.76894680,-0.50750490,0.00787402
-1.65894764,-0.23068400,-1.19955700,-0.53826270,0.00790477
-1.57894764,-0.30757870,-1.67630400,-0.53826270,0.00790477
-1.49894764,-0.35371550,-2.16843000,-0.47674700,0.00790477
-1.41894764,-0.35371550,-2.67593500,-0.30757870,0.00787402
-1.33894763,-0.27682080,-3.16806100,-0.12303150,0.00784326
-1.25894763,-0.12303150,-3.67556500,0.00000000,0.00784326
-1.17894763,0.15378940,-4.16769200,-0.06151574,0.00784326
-1.09894763,0.53826270,-4.69057600,-0.36909450,0.00784326
-1.01894763,1.01501000,-5.19808000,-0.96887300,0.00787402
-0.93894763,1.59940900,-5.72096400,-1.81471400,0.00790477
-0.85894763,2.21456700,-6.22846900,-2.76820900,0.00790477
-0.77894763,2.82972400,-6.70521600,-3.56791300,0.00790477
-0.69894763,3.36798700,-7.12044700,-3.75246000,0.00790477
-0.61894763,3.76783900,-7.45878400,-2.90661900,0.00787402
-0.53894762,3.99852300,-7.70484700,-0.92273620,0.00784326
-0.45894762,3.99852300,-7.82787800,2.09153500,0.00784326
-0.37894762,3.78321800,-7.82787800,5.90551100,0.00784326
-0.29894762,3.33722900,-7.70484700,10.21161000,0.00784326
-0.21894762,2.70669300,-7.45878400,14.73302000,0.00787402
-0.13894762,1.92236700,-7.12044700,19.30056000,0.00790477
-0.05894762,1.01501000,-6.70521600,24.02190000,0.00790477
0.02105238,0.06151574,-6.22846900,29.21998000,0.00790477
0.10105238,-0.92273620,-5.72096400,35.55610000,0.00787402
0.18105239,-1.92236700,-5.19808000,43.84534000,0.00787402
0.26105239,-2.86048200,-4.69057600,54.94894000,0.00784326
0.34105239,-3.62942900,-4.16769200,69.62044000,0.00784326
0.42105239,-4.13693400,-3.67556500,88.32123000,0.00787402
0.50105239,-4.33686000,-3.16806100,111.15900000,0.00793553
0.58105239,-4.21382900,-2.67593500,137.67220000,0.00805856
0.66105239,-3.79859700,-2.16843000,166.89220000,0.00821235
0.74105239,-3.21419800,-1.67630400,197.29640000,0.00836614
0.82105239,-2.69131400,-1.19955700,227.00850000,0.00851993
0.90105239,-2.58366100,-0.76894680,253.90620000,0.00858145
0.98105240,-3.22957700,-0.39985230,275.85200000,0.00855069
1.06105240,-4.64443900,-0.15378940,290.98490000,0.00836614
1.14105240,-6.68983700,-0.01537894,297.95150000,0.00805856
1.22105240,-9.05819300,-0.01537894,295.98300000,0.00759720
1.30105240,-11.45731000,-0.15378940,285.09470000,0.00698204
1.38105240,-13.67187000,-0.39985230,266.00950000,0.00621309
1.46105240,-15.62500000,-0.76894680,240.17290000,0.00535187
1.54105240,-17.54737000,-1.19955700,209.49190000,0.00442913
1.62105240,-19.88497000,-1.67630400,176.16570000,0.00347564
1.70105241,-23.65280000,-2.21456700,142.45510000,0.00246063
1.78105241,-29.86589000,-2.79896600,110.39000000,0.00141486
1.86105241,-39.04712000,-3.36798700,81.63139000,0.00055364
1.94105241,-51.45792000,-3.79859700,57.34805000,0.00003076
2.02105241,-66.95989000,-3.96776600,38.06287000,0.00015379
2.10105241,-85.15318000,-3.78321800,23.74508000,0.00104577
2.18105241,-105.43800000,-3.21419800,13.88718000,0.00273745
2.26105241,-127.07610000,-2.30684000,7.59719500,0.00516732
2.34105241,-149.43710000,-1.26107300,3.86011300,0.00790477
2.42105242,-172.05950000,-0.32295760,1.58403000,0.01048843
2.50105242,-194.98950000,-0.01537894,-0.16916830,0.01190330
2.58105242,-218.41170000,-0.79970470,-1.96850400,0.01128814
2.66105242,-242.24900000,-2.79896600,-4.09079700,0.00839690
2.74105242,-266.37860000,-5.93626900,-6.55142700,0.00329109
2.82105242,-290.58500000,-9.93479300,-9.13508800,-0.00366019
2.90105242,-314.54540000,-14.48696000,-11.50344000,-0.01193406
2.98105242,-337.87520000,-19.30056000,-13.36430000,-0.02094611
3.06105242,-360.14400000,-24.19107000,-14.50234000,-0.03041954
3.14105242,-380.98240000,-29.23536000,-14.85605000,-0.04029281
3.22105243,-400.06760000,-34.78716000,-14.65613000,-0.05111958
3.30105243,-417.35360000,-41.67692000,-14.21014000,-0.06403790
3.38105243,-432.88630000,-50.84276000,-13.65650000,-0.08043184
3.46105243,-446.48130000,-62.77681000,-12.97982000,-0.10113190
3.54105243,-457.96930000,-77.70977000,-12.21087000,-0.12663020
3.62105243,-467.11980000,-95.56471000,-11.27276000,-0.15695740
3.70105243,-473.73270000,-115.97260000,-10.13472000,-0.19162160
3.78105243,-477.68510000,-138.33350000,-8.73523500,-0.22973060
3.86105243,-478.93080000,-161.90940000,-7.07431000,-0.27011560
3.94105244,-477.48520000,-186.02360000,-5.21345900,-0.31139270
4.02105244,-473.54820000,-210.07630000,-3.22957700,-0.35223920
4.10105244,-467.47350000,-233.88290000,-1.29183100,-0.39179380
4.18105244,-459.72250000,-257.41260000,0.52288380,-0.42931840
4.26105244,-450.69510000,-280.46560000,2.12229300,-0.46407480
4.34105244,-440.69880000,-302.88810000,3.39874500,-0.49554010
4.42105244,-429.90280000,-324.46480000,4.35223900,-0.52334520
4.50105244,-418.39940000,-344.99570000,4.93663800,-0.54730560
4.58105244,-406.15770000,-364.20400000,5.18270100,-0.56735970
4.66105245,-393.07020000,-381.81280000,5.16732200,-0.58350760
4.74105245,-379.04460000,-397.56090000,4.93663800,-0.59578000
4.82105245,-363.85030000,-411.18660000,4.59830200,-0.60423850
4.90105245,-347.44090000,-422.59780000,4.24458600,-0.60897520
4.98105245,-330.15500000,-431.70210000,3.96776600,-0.61011320
5.06105245,-312.45390000,-438.31510000,3.82935500,-0.60749880
5.14105245,-294.90650000,-442.28280000,3.84473400,-0.60097810
5.22105245,-277.97430000,-443.46700000,4.02928100,-0.59042820
5.30105245,-262.02630000,-441.75990000,4.38299700,-0.57575670
5.38105245,-247.23180000,-437.17700000,4.82898600,-0.55708660
5.46105246,-233.49840000,-429.81050000,5.36724900,-0.53466410
5.54105246,-220.53390000,-419.89110000,5.92089000,-0.50898130
5.62105246,-207.70790000,-407.71100000,6.47453200,-0.48065330
5.70105246,-194.42050000,-393.68540000,6.96665800,-0.45051060
5.78105246,-180.57950000,-378.35260000,7.38188900,-0.41959890
5.86105246,-166.36930000,-362.22010000,7.67408900,-0.38893330
5.94105246,-152.12840000,-345.65700000,7.82787800,-0.35934420
6.02105246,-138.28740000,-328.98620000,7.81250000,-0.33147760
6.10105246,-125.24610000,-312.33080000,7.62795300,-0.30564100
6.18105247,-113.26590000,-295.73690000,7.28961600,-0.28186510
6.26105247,-102.45450000,-279.12770000,6.79749000,-0.25984250
6.34105247,-92.70422000,-262.39540000,6.22846900,-0.23920400
6.42105247,-83.47687000,-245.27870000,5.62869100,-0.21914990
6.50105247,-74.34177000,-227.71590000,5.02891200,-0.19912650
6.58105247,-65.17593000,-210.04550000,4.52140800,-0.17925690
6.66105247,-56.10236000,-192.72880000,4.15231300,-0.15994090
6.74105247,-47.33637000,-176.33490000,3.95238700,-0.14179380
6.82105247,-39.13939000,-161.40190000,3.95238700,-0.12546140
6.90105248,-31.75750000,-148.25290000,4.15231300,-0.11146650
6.98105248,-25.39062000,-137.05710000,4.52140800,-0.10008610
7.06105248,-20.06951000,-127.67590000,5.02891200,-0.09128937
7.14105248,-15.73265000,-119.72500000,5.62869100,-0.08461491
7.22105248,-12.04171000,-112.48150000,6.22846900,-0.07914001
7.30105248,-8.70447700,-105.23810000,6.81286900,-0.07391117
7.38105248,-5.65944900,-97.74852000,7.28961600,-0.06862082
7.46105248,-2.99889300,-90.02829000,7.64333200,-0.06314591
7.54105248,-0.83046260,-82.26193000,7.82787800,-0.05760950
7.62105248,0.64591530,-74.74163000,7.82787800,-0.05231914
7.70105249,1.32258800,-67.77497000,7.64333200,-0.04755167
7.78105249,1.12266200,-61.60802000,7.28961600,-0.04358391
7.86105249,0.09227362,-56.33304000,6.81286900,-0.04050812
7.94105249,-1.63016700,-51.90391000,6.22846900,-0.03835507
8.02105249,-3.73708200,-47.93614000,5.62869100,-0.03669414
8.10105249,-5.90551100,-44.07603000,5.02891200,-0.03521777
8.18105249,-7.95091000,-40.21592000,4.52140800,-0.03386442
8.26105249,-9.75024500,-36.46346000,4.15231300,-0.03266486
8.34105249,-11.18049000,-32.95706000,3.95238700,-0.03171137
8.42105250,-12.25701000,-29.94279000,3.95238700,-0.03115773
8.50105250,-12.97982000,-27.57443000,4.15231300,-0.03112697
8.58105250,-13.42581000,-25.97502000,4.52140800,-0.03164985
8.66105250,-13.67187000,-25.12918000,5.02891200,-0.03272638
8.74105250,-13.79491000,-24.88312000,5.62869100,-0.03420275
8.82105250,-13.87180000,-24.86774000,6.22846900,-0.03583292
8.90105250,-13.96407000,-24.68319000,6.79749000,-0.03730930
8.98105250,-14.19476000,-24.02190000,7.28961600,-0.03844734
9.06105250,-14.60999000,-22.76083000,7.62795300,-0.03915477
9.14105251,-15.27128000,-20.82308000,7.81250000,-0.03933932
9.22105251,-16.16326000,-18.25480000,7.82787800,-0.03900098
9.30105251,-17.27055000,-15.14825000,7.67408900,-0.03817052
9.38105251,-18.54700000,-11.65723000,7.38188900,-0.03694021
9.46105251,-19.93110000,-7.95091000,6.96665800,-0.03540231
9.54105251,-21.33058000,-4.15231300,6.47453200,-0.03364911
9.62105251,-22.68393000,-0.33833660,5.92089000,-0.03174213
9.70105251,-23.96038000,3.46026100,5.38262700,-0.02974286
9.78105251,-25.11380000,7.16658400,4.87512300,-0.02777436
9.86105251,-26.14419000,10.73450000,4.42913300,-0.02592889
9.94105252,-27.05155000,14.08710000,4.06003900,-0.02426796
10.02105252,-27.83587000,17.22441000,3.79859700,-0.02288386
10.10105252,-28.52793000,20.10027000,3.61405000,-0.02177658
10.18105252,-29.12770000,22.73007000,3.50639700,-0.02097687
10.26105252,-29.61983000,25.08304000,3.42950300,-0.02039247
10.34105252,-30.00430000,27.15920000,3.41412400,-0.01996186
10.42105252,-30.20423000,28.92778000,3.41412400,-0.01956201
10.50105252,-30.15809000,30.34264000,3.42950300,-0.01903912
10.58105252,-29.81976000,31.32689000,3.50639700,-0.01836245
10.66105253,-29.14308000,31.78826000,3.61405000,-0.01743971
10.74105253,-28.11270000,31.66523000,3.79859700,-0.01633243
10.82105253,-26.72859000,30.92704000,4.06003900,-0.01500984
10.90105253,-25.02153000,29.57369000,4.42913300,-0.01353346
10.98105253,-23.02227000,27.62057000,4.87512300,-0.01196481
11.06105253,-20.80770000,25.17532000,5.38262700,-0.01036540
11.14105253,-18.42397000,22.33022000,5.92089000,-0.00873524
11.22105253,-15.90182000,19.19291000,6.47453200,-0.00707431
11.30105253,-13.27202000,15.88644000,6.96665800,-0.00544414
11.38105253,-10.58071000,12.47232000,7.38188900,-0.00378322
