Time,Channel A,Channel B,Channel C,Channel D
(ns),(mV),(mV),(mV),(V)

-15.21066683,0.01537894,0.12303150,-0.12303150,0.00784326
-15.13066682,0.04613681,0.30757870,-0.30757870,0.00784326
-15.05066682,0.10765260,0.43061020,-0.43061020,0.00787402
-14.97066682,0.16916830,0.50750490,-0.50750490,0.00790477
-14.89066682,0.23068400,0.53826270,-0.53826270,0.00790477
-14.81066682,0.30757870,0.53826270,-0.53826270,0.00790477
-14.73066682,0.33833660,0.50750490,-0.50750490,0.00790477
-14.65066682,0.33833660,0.43061020,-0.43061020,0.00787402
-14.57066682,0.26144190,0.30757870,-0.30757870,0.00784326
-14.49066682,0.10765260,0.12303150,-0.12303150,0.00784326
-14.41066681,-0.12303150,-0.13841040,0.13841040,0.00784326
-14.33066681,-0.44598910,-0.46136810,0.46136810,0.00784326
-14.25066681,-0.83046260,-0.83046260,0.83046260,0.00787402
-14.17066681,-1.26107300,-1.27645200,1.27645200,0.00790477
-14.09066681,-1.73782000,-1.73782000,1.73782000,0.00790477
-14.01066681,-2.21456700,-2.21456700,2.21456700,0.00790477
-13.93066681,-2.67593500,-2.67593500,2.67593500,0.00790477
-13.85066681,-3.10654500,-3.10654500,3.10654500,0.00787402
-13.77066681,-3.49101900,-3.49101900,3.49101900,0.00787402
-13.69066680,-3.79859700,-3.79859700,3.79859700,0.00784326
-13.61066680,-4.02928100,-4.01390200,4.02928100,0.00781250
-13.53066680,-4.18307100,-4.15231300,4.18307100,0.00778174
-13.45066680,-4.27534400,-4.18307100,4.27534400,0.00768947
-13.37066680,-4.29072300,-4.12155500,4.29072300,0.00756644
-13.29066680,-4.25996500,-4.01390200,4.25996500,0.00744341
-13.21066680,-4.18307100,-3.89087100,4.18307100,0.00728962
-13.13066680,-4.10617600,-3.76783900,4.10617600,0.00719734
-13.05066680,-4.02928100,-3.69094500,4.02928100,0.00719734
-12.97066680,-3.96776600,-3.70632400,3.96776600,0.00732037
-12.89066679,-3.92162900,-3.81397600,3.93700800,0.00762795
-12.81066679,-3.92162900,-4.06003900,3.92162900,0.00812008
-12.73066679,-3.96776600,-4.39837600,3.92162900,0.00882751
-12.65066679,-4.02928100,-4.85974400,3.93700800,0.00971949
-12.57066679,-4.10617600,-5.36724900,3.93700800,0.01076526
-12.49066679,-4.18307100,-5.92089000,3.95238700,0.01184178
-12.41066679,-4.25996500,-6.47453200,3.95238700,0.01294907
-12.33066679,-4.29072300,-6.96665800,3.95238700,0.01393332
-12.25066679,-4.27534400,-7.36651000,3.93700800,0.01476378
-12.17066678,-4.19845000,-7.65871000,3.92162900,0.01534818
-12.09066678,-4.02928100,-7.81250000,3.92162900,0.01565576
-12.01066678,-3.78321800,-7.82787800,3.92162900,0.01565576
-11.93066678,-3.44488200,-7.72022600,3.92162900,0.01534818
-11.85066678,-3.01427100,-7.47416300,3.93700800,0.01476378
-11.77066678,-2.50676700,-7.13582600,3.95238700,0.01393332
-11.69066678,-1.98388300,-6.70521600,3.95238700,0.01294907
-11.61066678,-1.43024100,-6.22846900,3.95238700,0.01184178
-11.53066678,-0.92273620,-5.72096400,3.95238700,0.01076526
-11.45066677,-0.49212600,-5.19808000,3.93700800,0.00971949
-11.37066677,-0.18454720,-4.69057600,3.92162900,0.00882751
-11.29066677,-0.01537894,-4.16769200,3.92162900,0.00812008
-11.21066677,-0.01537894,-3.67556500,3.92162900,0.00762795
-11.13066677,-0.18454720,-3.16806100,3.92162900,0.00732037
-11.05066677,-0.49212600,-2.67593500,3.93700800,0.00719734
-10.97066677,-0.92273620,-2.16843000,3.95238700,0.00719734
-10.89066677,-1.43024100,-1.67630400,3.95238700,0.00728962
-10.81066677,-1.98388300,-1.19955700,3.95238700,0.00744341
-10.73066677,-2.50676700,-0.76894680,3.95238700,0.00756644
-10.65066676,-2.99889300,-0.39985230,3.93700800,0.00768947
-10.57066676,-3.42950300,-0.15378940,3.92162900,0.00778174
-10.49066676,-3.78321800,-0.01537894,3.92162900,0.00781250
-10.41066676,-4.04466000,-0.01537894,3.92162900,0.00784326
-10.33066676,-4.24458600,-0.15378940,3.92162900,0.00787402
-10.25066676,-4.36761800,-0.39985230,3.93700800,0.00787402
-10.17066676,-4.45989200,-0.76894680,3.95238700,0.00790477
-10.09066676,-4.49065000,-1.19955700,3.95238700,0.00790477
-10.01066676,-4.49065000,-1.67630400,3.95238700,0.00790477
-9.93066675,-4.44451300,-2.16843000,3.95238700,0.00790477
-9.85066675,-4.36761800,-2.67593500,3.93700800,0.00787402
-9.77066675,-4.22920700,-3.18344000,3.93700800,0.00784326
-9.69066675,-4.04466000,-3.67556500,3.92162900,0.00784326
-9.61066675,-3.78321800,-4.16769200,3.90625000,0.00784326
-9.53066675,-3.47564000,-4.64443900,3.89087100,0.00784326
-9.45066675,-3.10654500,-5.10580700,3.84473400,0.00787402
-9.37066675,-2.67593500,-5.56717500,3.78321800,0.00790477
-9.29066675,-2.21456700,-5.99778500,3.72170300,0.00790477
-9.21066674,-1.73782000,-6.39763700,3.64480800,0.00790477
-9.13066674,-1.27645200,-6.78211100,3.59867100,0.00790477
-9.05066674,-0.83046260,-7.13582600,3.58329200,0.00787402
-8.97066674,-0.46136810,-7.44340500,3.64480800,0.00784326
-8.89066674,-0.13841040,-7.72022600,3.79859700,0.00784326
-8.81066674,0.12303150,-7.95091000,4.07541800,0.00784326
-8.73066674,0.30757870,-8.15083600,4.45989200,0.00784326
-8.65066674,0.43061020,-8.28924700,4.95201700,0.00787402
-8.57066674,0.50750490,-8.39689900,5.53641700,0.00790477
-8.49066674,0.53826270,-8.44303500,6.16695300,0.00790477
-8.41066673,0.53826270,-8.44303500,6.78211100,0.00790477
-8.33066673,0.50750490,-8.39689900,7.32037400,0.00790477
-8.25066673,0.43061020,-8.30462600,7.72022600,0.00787402
-8.17066673,0.30757870,-8.16621500,7.93553100,0.00784326
-8.09066673,0.12303150,-7.96628900,7.93553100,0.00784326
-8.01066673,-0.13841040,-7.70484700,7.68946800,0.00784326
-7.93066673,-0.49212600,-7.39726800,7.18196300,0.00784326
-7.85066673,-0.93811510,-7.04355200,6.45915300,0.00787402
-7.77066673,-1.43024100,-6.61294300,5.53641700,0.00790477
-7.69066672,-1.96850400,-6.16695300,4.49065000,0.00790477
-7.61066672,-2.52214600,-5.69020700,3.41412400,0.00790477
-7.53066672,-3.01427100,-5.21345900,2.35297700,0.00790477
-7.45066672,-3.44488200,-4.76747000,1.41486200,0.00787402
-7.37066672,-3.73708200,-4.36761800,0.67667320,0.00784326
-7.29066672,-3.90625000,-4.04466000,0.15378940,0.00784326
-7.21066672,-3.90625000,-3.81397600,-0.09227362,0.00784326
-7.13066672,-3.73708200,-3.66018700,-0.09227362,0.00784326
-7.05066672,-3.44488200,-3.59867100,0.15378940,0.00787402
-6.97066672,-3.01427100,-3.59867100,0.58439960,0.00790477
-6.89066671,-2.52214600,-3.64480800,1.12266200,0.00790477
-6.81066671,-1.96850400,-3.72170300,1.73782000,0.00790477
-6.73066671,-1.43024100,-3.78321800,2.35297700,0.00790477
-6.65066671,-0.92273620,-3.84473400,2.92199800,0.00787402
-6.57066671,-0.49212600,-3.89087100,3.39874500,0.00784326
-6.49066671,-0.13841040,-3.92162900,3.76783900,0.00784326
-6.41066671,0.10765260,-3.92162900,4.04466000,0.00784326
-6.33066671,0.27682080,-3.89087100,4.21382900,0.00784326
-6.25066671,0.33833660,-3.84473400,4.29072300,0.00787402
-6.17066670,0.35371550,-3.78321800,4.29072300,0.00790477
-6.09066670,0.30757870,-3.72170300,4.25996500,0.00790477
-6.01066670,0.23068400,-3.64480800,4.18307100,0.00790477
-5.93066670,0.16916830,-3.59867100,4.10617600,0.00787402
-5.85066670,0.09227362,-3.59867100,4.02928100,0.00787402
-5.77066670,0.04613681,-3.66018700,3.96776600,0.00784326
-5.69066670,0.01537894,-3.81397600,3.93700800,0.00784326
-5.61066670,0.00000000,-4.06003900,3.92162900,0.00787402
-5.53066670,-0.01537894,-4.41375400,3.92162900,0.00793553
-5.45066669,0.00000000,-4.85974400,3.93700800,0.00805856
-5.37066669,0.00000000,-5.38262700,3.93700800,0.00821235
-5.29066669,0.00000000,-5.92089000,3.95238700,0.00836614
-5.21066669,0.00000000,-6.47453200,3.95238700,0.00851993
-5.13066669,0.00000000,-6.96665800,3.95238700,0.00858145
-5.05066669,0.00000000,-7.38188900,3.93700800,0.00855069
-4.97066669,0.00000000,-7.67408900,3.92162900,0.00839690
-4.89066669,0.00000000,-7.82787800,3.92162900,0.00805856
-4.81066669,0.00000000,-7.82787800,3.92162900,0.00756644
-4.73066669,0.00000000,-7.67408900,3.92162900,0.00688976
-4.65066668,0.00000000,-7.38188900,3.93700800,0.00602854
-4.57066668,0.00000000,-6.96665800,3.95238700,0.00501353
-4.49066668,0.00000000,-6.47453200,3.95238700,0.00396777
-4.41066668,0.00000000,-5.92089000,3.95238700,0.00286048
-4.33066668,0.00000000,-5.36724900,3.95238700,0.00184547
-4.25066668,0.00000000,-4.85974400,3.93700800,0.00098425
-4.17066668,0.00000000,-4.39837600,3.92162900,0.00036909
-4.09066668,0.00000000,-4.06003900,3.92162900,0.00003076
-4.01066668,0.00000000,-3.81397600,3.92162900,0.00003076
-3.93066667,0.00000000,-3.70632400,3.92162900,0.00036909
-3.85066667,0.00000000,-3.69094500,3.93700800,0.00098425
-3.77066667,0.00000000,-3.76783900,3.95238700,0.00184547
-3.69066667,0.00000000,-3.89087100,3.95238700,0.00286048
-3.61066667,0.00000000,-4.01390200,3.95238700,0.00396777
-3.53066667,0.00000000,-4.13693400,3.95238700,0.00501353
-3.45066667,0.00000000,-4.18307100,3.93700800,0.00602854
-3.37066667,0.00000000,-4.15231300,3.92162900,0.00688976
-3.29066667,0.00000000,-4.02928100,3.92162900,0.00756644
-3.21066666,0.00000000,-3.78321800,3.92162900,0.00805856
-3.13066666,0.00000000,-3.44488200,3.92162900,0.00839690
-3.05066666,0.00000000,-3.01427100,3.93700800,0.00855069
-2.97066666,0.00000000,-2.52214600,3.95238700,0.00858145
-2.89066666,0.00000000,-1.98388300,3.95238700,0.00851993
-2.81066666,0.00000000,-1.43024100,3.95238700,0.00836614
-2.73066666,0.00000000,-0.92273620,3.95238700,0.00821235
-2.65066666,0.00000000,-0.49212600,3.93700800,0.00805856
-2.57066666,0.00000000,-0.18454720,3.92162900,0.00793553
-2.49066666,0.00000000,-0.01537894,3.92162900,0.00787402
-2.41066665,0.00000000,-0.01537894,3.92162900,0.00784326
-2.33066665,0.00000000,-0.18454720,3.92162900,0.00784326
-2.25066665,0.00000000,-0.49212600,3.93700800,0.00787402
-2.17066665,0.00000000,-0.92273620,3.95238700,0.00787402
-2.09066665,0.00000000,-1.43024100,3.95238700,0.00790477
-2.01066665,0.00000000,-1.98388300,3.95238700,0.00790477
-1.93066665,0.00000000,-2.50676700,3.96776600,0.00790477
-1.85066665,0.00000000,-2.99889300,3.98314500,0.00787402
-1.77066665,-0.01537894,-3.42950300,3.99852300,0.00784326
-1.69066664,0.00000000,-3.78321800,3.96776600,0.00784326
-1.61066664,0.01537894,-4.04466000,3.84473400,0.00784326
-1.53066664,0.04613681,-4.24458600,3.58329200,0.00784326
-1.45066664,0.09227362,-4.36761800,3.18344000,0.00787402
-1.37066664,0.16916830,-4.45989200,2.64517700,0.00790477
-1.29066664,0.23068400,-4.49065000,2.06077700,0.00790477
-1.21066664,0.30757870,-4.49065000,1.52251500,0.00790477
-1.13066664,0.35371550,-4.44451300,1.33796700,0.00790477
-1.05066664,0.33833660,-4.36761800,1.73782000,0.00787402
-0.97066663,0.27682080,-4.22920700,2.56828200,0.00784326
-0.89066663,0.10765260,-4.04466000,3.52177600,0.00784326
-0.81066663,-0.13841040,-3.78321800,4.19845000,0.00784326
-0.73066663,-0.49212600,-3.47564000,4.24458600,0.00784326
-0.65066663,-0.92273620,-3.10654500,3.46026100,0.00787402
-0.57066663,-1.43024100,-2.67593500,1.92236700,0.00790477
-0.49066663,-1.96850400,-2.21456700,0.09227362,0.00790477
-0.41066663,-2.52214600,-1.73782000,-1.15342000,0.00790477
-0.33066663,-3.02965000,-1.26107300,-0.55364170,0.00790477
-0.25066663,-3.49101900,-0.83046260,3.35260800,0.00787402
-0.17066662,-3.81397600,-0.44598910,11.84178000,0.00784326
-0.09066662,-3.95238700,-0.12303150,25.94427000,0.00784326
-0.01066662,-3.82935500,0.10765260,46.22908000,0.00784326
0.06933338,-3.39874500,0.26144190,72.63471000,0.00784326
0.14933338,-2.67593500,0.33833660,104.46910000,0.00787402
0.22933338,-1.72244100,0.33833660,140.39430000,0.00790477
0.30933338,-0.63053640,0.30757870,178.53410000,0.00790477
0.38933338,0.46136810,0.23068400,216.61230000,0.00790477
0.46933338,1.23031500,0.15378940,252.29150000,0.00787402
0.54933339,1.46099900,0.09227362,283.31080000,0.00787402
0.62933339,1.13804100,0.03075787,307.79400000,0.00784326
0.70933339,0.43061020,0.00000000,324.38790000,0.00784326
0.78933339,-0.44598910,0.00000000,332.41570000,0.00787402
0.86933339,-1.26107300,0.03075787,331.93900000,0.00793553
0.94933339,-1.83009300,0.09227362,323.66510000,0.00805856
1.02933339,-2.16843000,0.15378940,308.83980000,0.00821235
1.10933339,-2.47600900,0.23068400,289.06250000,0.00836614
1.18933339,-3.18344000,0.30757870,266.08640000,0.00851993
1.26933339,-5.18270100,0.32295760,241.55690000,0.00855069
1.34933340,-9.36577200,0.24606300,216.90450000,0.00842766
1.42933340,-16.14788000,0.13841040,193.22090000,0.00818159
1.50933340,-25.65207000,0.03075787,171.15220000,0.00793553
1.58933340,-37.70915000,0.00000000,150.95960000,0.00778174
1.66933340,-51.90391000,0.12303150,132.58180000,0.00784326
1.74933340,-67.69808000,0.39985230,115.69570000,0.00812008
1.82933340,-84.53801000,0.84584150,99.90157000,0.00861220
1.90933340,-101.99310000,1.33796700,84.81483000,0.00916585
1.98933340,-119.94030000,1.73782000,70.14333000,0.00956570
2.06933341,-138.71800000,1.69168300,55.82554000,0.00922736
2.14933341,-158.83370000,0.89197830,41.99987000,0.00775098
2.22933341,-180.45640000,-0.64591530,28.95854000,0.00516732
2.30933341,-203.61710000,-2.75283000,17.11676000,0.00181472
2.38933341,-228.14650000,-5.13656500,6.87438400,-0.00181472
2.46933341,-253.64480000,-7.50492100,-1.47637800,-0.00516732
2.54933341,-279.60450000,-9.65797200,-7.78174200,-0.00796629
2.62933341,-305.45650000,-11.53420000,-12.11860000,-0.01015010
2.70933341,-330.57020000,-13.34892000,-14.79454000,-0.01214936
2.78933342,-354.49980000,-15.64038000,-16.37857000,-0.01494833
2.86933342,-377.06080000,-19.36208000,-17.47047000,-0.02023868
2.94933342,-398.20680000,-25.57517000,-18.31631000,-0.02983514
3.02933342,-417.69190000,-34.84867000,-19.00837000,-0.04481422
3.10933342,-435.25460000,-47.41326000,-19.48511000,-0.06576034
3.18933342,-450.63360000,-63.17667000,-19.62352000,-0.09255044
3.26933342,-463.58260000,-81.76981000,-19.22367000,-0.12463090
3.34933342,-473.93270000,-102.51600000,-18.16252000,-0.16089440
3.42933342,-481.54520000,-124.72320000,-16.39395000,-0.20004920
3.50933342,-486.43570000,-147.69930000,-13.97945000,-0.24077260
3.58933343,-488.69640000,-170.93690000,-11.19587000,-0.28192670
3.66933343,-488.63490000,-194.38980000,-8.33538300,-0.32301920
3.74933343,-486.66640000,-218.18100000,-5.58255400,-0.36386560
3.82933343,-482.99090000,-242.23360000,-3.09116600,-0.40409700
3.90933343,-477.77740000,-266.40930000,-0.93811510,-0.44352850
3.98933343,-471.07220000,-290.53880000,0.84584150,-0.48188360
4.06933343,-462.89060000,-314.34550000,2.27608300,-0.51888530
4.14933343,-453.15570000,-337.49080000,3.38336600,-0.55422610
4.22933343,-441.80610000,-359.57490000,4.27534400,-0.58735230
4.30933344,-428.82620000,-380.18270000,4.99815400,-0.61764880
4.38933344,-414.17010000,-398.91420000,5.61331200,-0.64450050
4.46933344,-398.03760000,-415.60040000,6.16695300,-0.66726130
4.54933344,-380.90550000,-430.08730000,6.68983700,-0.68534700
4.62933344,-363.32740000,-442.09830000,7.18196300,-0.69811150
4.70933344,-345.85690000,-451.41790000,7.64333200,-0.70493970
4.78933344,-328.98620000,-457.83090000,8.02780400,-0.70552410
4.86933344,-312.97670000,-461.19890000,8.33538300,-0.69964930
4.94933344,-297.93610000,-461.50650000,8.50455100,-0.68759230
5.02933345,-283.74140000,-458.78440000,8.56606700,-0.66975270
5.10933345,-270.06950000,-453.24800000,8.51993000,-0.64699180
5.18933345,-256.27460000,-445.15870000,8.38152000,-0.62017100
5.26933345,-241.86450000,-434.91630000,8.21235200,-0.59042820
5.34933345,-226.79320000,-422.99760000,8.05856200,-0.55893210
5.42933345,-211.32200000,-409.81790000,7.93553100,-0.52666710
5.50933345,-195.85080000,-395.66930000,7.85863600,-0.49446360
5.58933345,-180.88710000,-380.78250000,7.82787800,-0.46278300
5.66933345,-166.83070000,-365.26510000,7.84325700,-0.43184050
5.74933345,-153.95850000,-349.10180000,7.85863600,-0.40160550
5.82933346,-142.33200000,-332.27730000,7.88939400,-0.37192420
5.90933346,-131.76670000,-314.76070000,7.90477300,-0.34255050
5.98933346,-121.66280000,-296.42900000,7.90477300,-0.31308440
6.06933346,-111.43580000,-277.34370000,7.88939400,-0.28346460
6.14933346,-100.96270000,-257.95090000,7.85863600,-0.25418310
6.22933346,-90.32050000,-238.80410000,7.84325700,-0.22610110
6.30933346,-79.72440000,-220.48780000,7.84325700,-0.20017220
6.38933346,-69.46665000,-203.52480000,7.85863600,-0.17722690
6.46933346,-59.83944000,-188.26890000,7.90477300,-0.15791090
6.54933347,-51.10420000,-174.82770000,7.96628900,-0.14237820
6.62933347,-43.32246000,-163.07820000,8.05856200,-0.13044410
6.70933347,-36.49422000,-152.63590000,8.13545700,-0.12137060
6.78933347,-30.28112000,-142.80880000,8.21235200,-0.11383490
6.86933347,-24.40637000,-132.93550000,8.22773100,-0.10654530
6.94933347,-18.91609000,-122.87770000,8.19697300,-0.09897884
7.02933347,-13.93332000,-112.74300000,8.10469900,-0.09095103
7.10933347,-9.65797200,-102.82360000,7.95091000,-0.08261565
7.18933347,-6.28998500,-93.48856000,7.72022600,-0.07437254
7.26933348,-4.02928100,-85.07627000,7.45878400,-0.06665231
7.34933348,-2.90661900,-77.81741000,7.13582600,-0.05985482
7.42933348,-2.87586100,-71.78887000,6.78211100,-0.05419537
7.50933348,-3.75246000,-66.83685000,6.39763700,-0.04967397
7.58933348,-5.18270100,-62.45386000,5.99778500,-0.04582923
7.66933348,-6.78211100,-58.16314000,5.56717500,-0.04223056
7.74933348,-8.35076200,-53.79552000,5.12118600,-0.03881644
7.82933348,-9.82714000,-49.39714000,4.65981800,-0.03555610
7.90933348,-11.14973000,-45.13718000,4.16769200,-0.03266486
7.98933348,-12.36466000,-41.27706000,3.66018700,-0.03023499
8.06933349,-13.54884000,-38.00135000,3.13730300,-0.02848179
8.14933349,-14.74840000,-35.49459000,2.58366100,-0.02746678
8.22933349,-16.02485000,-33.75676000,2.01464100,-0.02715920
8.30933349,-17.37820000,-32.64948000,1.43024100,-0.02749754
8.38933349,-18.73154000,-31.81902000,0.89197830,-0.02817421
8.46933349,-20.02337000,-30.83477000,0.41523130,-0.02891240
8.54933349,-21.22293000,-29.41990000,0.06151574,-0.02965059
8.62933349,-22.28408000,-27.48216000,-0.12303150,-0.03035802
8.70933349,-23.17606000,-24.97539000,-0.09227362,-0.03103469
8.78933350,-23.83735000,-21.97650000,0.15378940,-0.03174213
8.86933350,-24.29872000,-18.60851000,0.63053640,-0.03260335
8.94933350,-24.52940000,-15.04060000,1.33796700,-0.03361836
9.02933350,-24.54478000,-11.36503000,2.19918800,-0.03478716
9.10933350,-24.39099000,-7.73560500,3.16806100,-0.03604823
9.18933350,-24.11417000,-4.12155500,4.19845000,-0.03724778
9.26933350,-23.80659000,-0.49212600,5.19808000,-0.03829355
9.34933350,-23.52977000,3.10654500,6.12081600,-0.03903174
9.42933350,-23.39136000,6.65908000,6.92052100,-0.03940084
9.50933351,-23.43750000,10.10396000,7.58181600,-0.03937008
9.58933351,-23.69894000,13.39505000,8.07394100,-0.03897022
9.66933351,-24.20645000,16.47084000,8.38152000,-0.03820128
9.74933351,-24.89850000,19.33132000,8.55068800,-0.03709400
9.82933351,-25.74434000,21.91498000,8.58144600,-0.03570989
9.90933351,-26.63632000,24.23720000,8.51993000,-0.03411048
9.98933351,-27.45140000,26.28260000,8.38152000,-0.03235728
10.06933351,-28.06656000,28.03580000,8.21235200,-0.03045030
10.14933351,-28.37414000,29.48142000,8.05856200,-0.02845103
10.22933351,-28.31262000,30.54257000,7.93553100,-0.02642101
10.30933352,-27.83587000,31.20386000,7.85863600,-0.02448327
10.38933352,-26.97465000,31.44992000,7.84325700,-0.02260704
10.46933352,-25.74434000,31.25000000,7.87401500,-0.02091535
10.54933352,-24.20645000,30.65022000,7.95091000,-0.01931594
10.62933352,-22.43787000,29.65059000,8.04318300,-0.01787033
10.70933352,-20.46936000,28.31262000,8.13545700,-0.01648622
10.78933352,-18.34707000,26.68245000,8.21235200,-0.01513287
10.86933352,-16.11712000,24.76009000,8.22773100,-0.01368725
10.94933352,-13.77953000,22.54552000,8.21235200,-0.01211860
11.02933353,-11.41117000,20.02337000,8.12007800,-0.01045768
11.10933353,-9.02743600,17.20903000,7.95091000,-0.00873524
11.18933353,-6.67445900,14.10248000,7.72022600,-0.00698204
11.26933353,-4.41375400,10.74988000,7.41264700,-0.00525960
11.34933353,-2.22994600,7.18196300,7.04355200,-0.00362943
11.42933353,-0.15378940,3.46026100,6.62832200,-0.00209154
11.50933353,1.83009300,-0.33833660,6.16695300,-0.00067667
11.58933353,3.73708200,-4.15231300,5.69020700,0.00067667
11.66933353,5.61331200,-7.92015200,5.21345900,0.00209154
11.74933353,7.45878400,-11.58034000,4.76747000,0.00356791
