Time,Channel A,Channel B,Channel C,Channel D
(ns),(mV),(mV),(mV),(V)

-15.39999983,0.13841040,-3.99852300,3.90625000,0.00805856
-15.31999982,0.47674700,-3.96776600,3.89087100,0.00839690
-15.23999982,0.92273620,-3.69094500,3.84473400,0.00855069
-15.15999982,1.43024100,-3.19881900,3.78321800,0.00858145
-15.07999982,1.96850400,-2.58366100,3.72170300,0.00851993
-14.99999982,2.52214600,-1.90698800,3.64480800,0.00836614
-14.91999982,3.01427100,-1.24569400,3.59867100,0.00821235
-14.83999982,3.42950300,-0.67667320,3.59867100,0.00805856
-14.75999982,3.73708200,-0.26144190,3.66018700,0.00793553
-14.67999982,3.89087100,-0.03075787,3.81397600,0.00787402
-14.59999981,3.90625000,-0.01537894,4.06003900,0.00784326
-14.51999981,3.78321800,-0.21530510,4.41375400,0.00784326
-14.43999981,3.53715500,-0.58439960,4.85974400,0.00787402
-14.35999981,3.18344000,-1.07652500,5.38262700,0.00787402
-14.27999981,2.75283000,-1.67630400,5.92089000,0.00790477
-14.19999981,2.27608300,-2.27608300,6.47453200,0.00790477
-14.11999981,1.78395700,-2.86048200,6.96665800,0.00790477
-14.03999981,1.26107300,-3.35260800,7.38188900,0.00787402
-13.95999981,0.75356790,-3.70632400,7.67408900,0.00784326
-13.87999980,0.24606300,-3.89087100,7.82787800,0.00784326
-13.79999980,-0.24606300,-3.90625000,7.82787800,0.00784326
-13.71999980,-0.75356790,-3.75246000,7.67408900,0.00784326
-13.63999980,-1.26107300,-3.44488200,7.38188900,0.00787402
-13.55999980,-1.78395700,-3.02965000,6.96665800,0.00790477
-13.47999980,-2.27608300,-2.52214600,6.47453200,0.00790477
-13.39999980,-2.75283000,-1.96850400,5.92089000,0.00790477
-13.31999980,-3.18344000,-1.43024100,5.38262700,0.00787402
-13.23999980,-3.53715500,-0.92273620,4.85974400,0.00787402
-13.15999980,-3.79859700,-0.49212600,4.41375400,0.00784326
-13.07999979,-3.92162900,-0.13841040,4.06003900,0.00784326
-12.99999979,-3.89087100,0.10765260,3.81397600,0.00787402
-12.91999979,-3.69094500,0.27682080,3.66018700,0.00793553
-12.83999979,-3.33722900,0.33833660,3.59867100,0.00805856
-12.75999979,-2.86048200,0.35371550,3.59867100,0.00821235
-12.67999979,-2.27608300,0.30757870,3.64480800,0.00836614
-12.59999979,-1.67630400,0.23068400,3.72170300,0.00851993
-12.51999979,-1.09190400,0.15378940,3.78321800,0.00858145
-12.43999979,-0.58439960,0.09227362,3.84473400,0.00855069
-12.35999978,-0.21530510,0.03075787,3.89087100,0.00836614
-12.27999978,-0.03075787,0.00000000,3.90625000,0.00805856
-12.19999978,-0.03075787,0.00000000,3.92162900,0.00759720
-12.11999978,-0.21530510,0.03075787,3.93700800,0.00698204
-12.03999978,-0.58439960,0.09227362,3.93700800,0.00621309
-11.95999978,-1.09190400,0.15378940,3.95238700,0.00535187
-11.87999978,-1.67630400,0.23068400,3.95238700,0.00442913
-11.79999978,-2.27608300,0.30757870,3.95238700,0.00347564
-11.71999978,-2.86048200,0.33833660,3.95238700,0.00255290
-11.63999977,-3.35260800,0.32295760,3.93700800,0.00166093
-11.55999977,-3.70632400,0.24606300,3.92162900,0.00092274
-11.47999977,-3.89087100,0.10765260,3.92162900,0.00027682
-11.39999977,-3.90625000,-0.12303150,3.92162900,-0.00024606
-11.31999977,-3.75246000,-0.39985230,3.92162900,-0.00061516
-11.23999977,-3.44488200,-0.73818890,3.93700800,-0.00086122
-11.15999977,-3.02965000,-1.10728300,3.95238700,-0.00101501
-11.07999977,-2.52214600,-1.50713600,3.95238700,-0.00107653
-10.99999977,-1.96850400,-1.90698800,3.95238700,-0.00107653
-10.91999977,-1.43024100,-2.32221900,3.95238700,-0.00101501
-10.83999976,-0.93811510,-2.75283000,3.93700800,-0.00086122
-10.75999976,-0.49212600,-3.19881900,3.92162900,-0.00061516
-10.67999976,-0.13841040,-3.67556500,3.92162900,-0.00024606
-10.59999976,0.12303150,-4.18307100,3.92162900,0.00027682
-10.51999976,0.30757870,-4.72133400,3.92162900,0.00092274
-10.43999976,0.43061020,-5.29035400,3.93700800,0.00166093
-10.35999976,0.50750490,-5.89013200,3.95238700,0.00255290
-10.27999976,0.53826270,-6.47453200,3.95238700,0.00347564
-10.19999976,0.53826270,-7.01279500,3.95238700,0.00442913
-10.11999975,0.50750490,-7.47416300,3.95238700,0.00535187
-10.03999975,0.43061020,-7.81250000,3.93700800,0.00621309
-9.95999975,0.30757870,-7.98166800,3.92162900,0.00698204
-9.87999975,0.12303150,-7.95091000,3.92162900,0.00759720
-9.79999975,-0.13841040,-7.67408900,3.92162900,0.00805856
-9.71999975,-0.49212600,-7.18196300,3.92162900,0.00836614
-9.63999975,-0.93811510,-6.44377400,3.93700800,0.00855069
-9.55999975,-1.43024100,-5.53641700,3.95238700,0.00858145
-9.47999975,-1.96850400,-4.49065000,3.95238700,0.00851993
-9.39999974,-2.52214600,-3.41412400,3.95238700,0.00836614
-9.31999974,-3.02965000,-2.35297700,3.95238700,0.00821235
-9.23999974,-3.44488200,-1.41486200,3.93700800,0.00805856
-9.15999974,-3.75246000,-0.66129420,3.93700800,0.00793553
-9.07999974,-3.90625000,-0.15378940,3.92162900,0.00787402
-8.99999974,-3.89087100,0.07689468,3.90625000,0.00784326
-8.91999974,-3.70632400,0.04613681,3.89087100,0.00784326
-8.83999974,-3.35260800,-0.24606300,3.84473400,0.00787402
-8.75999974,-2.86048200,-0.73818890,3.78321800,0.00787402
-8.67999974,-2.27608300,-1.36872500,3.72170300,0.00790477
-8.59999973,-1.67630400,-2.04539800,3.64480800,0.00790477
-8.51999973,-1.09190400,-2.69131400,3.59867100,0.00790477
-8.43999973,-0.58439960,-3.24495600,3.59867100,0.00787402
-8.35999973,-0.21530510,-3.66018700,3.66018700,0.00784326
-8.27999973,-0.03075787,-3.87549200,3.81397600,0.00784326
-8.19999973,-0.03075787,-3.92162900,4.04466000,0.00784326
-8.11999973,-0.21530510,-3.76783900,4.36761800,0.00784326
-8.03999973,-0.58439960,-3.46026100,4.76747000,0.00787402
-7.95999973,-1.09190400,-3.02965000,5.21345900,0.00790477
-7.87999972,-1.67630400,-2.52214600,5.69020700,0.00790477
-7.79999972,-2.27608300,-1.96850400,6.16695300,0.00790477
-7.71999972,-2.86048200,-1.43024100,6.61294300,0.00790477
-7.63999972,-3.35260800,-0.93811510,7.04355200,0.00787402
-7.55999972,-3.70632400,-0.49212600,7.39726800,0.00784326
-7.47999972,-3.89087100,-0.13841040,7.70484700,0.00784326
-7.39999972,-3.90625000,0.12303150,7.96628900,0.00784326
-7.31999972,-3.75246000,0.30757870,8.16621500,0.00784326
-7.23999972,-3.44488200,0.43061020,8.30462600,0.00787402
-7.15999972,-3.02965000,0.50750490,8.39689900,0.00790477
-7.07999971,-2.52214600,0.53826270,8.44303500,0.00790477
-6.99999971,-1.96850400,0.53826270,8.44303500,0.00790477
-6.91999971,-1.43024100,0.50750490,8.39689900,0.00787402
-6.83999971,-0.92273620,0.43061020,8.30462600,0.00787402
-6.75999971,-0.49212600,0.30757870,8.16621500,0.00784326
-6.67999971,-0.13841040,0.12303150,7.96628900,0.00784326
-6.59999971,0.10765260,-0.13841040,7.70484700,0.00787402
-6.51999971,0.27682080,-0.49212600,7.39726800,0.00793553
-6.43999971,0.33833660,-0.93811510,7.04355200,0.00805856
-6.35999970,0.35371550,-1.43024100,6.61294300,0.00821235
-6.27999970,0.30757870,-1.96850400,6.16695300,0.00836614
-6.19999970,0.23068400,-2.52214600,5.69020700,0.00851993
-6.11999970,0.16916830,-3.01427100,5.21345900,0.00858145
-6.03999970,0.09227362,-3.44488200,4.76747000,0.00855069
-5.95999970,0.04613681,-3.73708200,4.36761800,0.00839690
-5.87999970,0.01537894,-3.90625000,4.04466000,0.00805856
-5.79999970,0.00000000,-3.90625000,3.81397600,0.00756644
-5.71999970,-0.01537894,-3.73708200,3.66018700,0.00688976
-5.63999969,0.00000000,-3.44488200,3.59867100,0.00602854
-5.55999969,0.00000000,-3.01427100,3.59867100,0.00501353
-5.47999969,0.00000000,-2.52214600,3.64480800,0.00396777
-5.39999969,0.00000000,-1.96850400,3.72170300,0.00286048
-5.31999969,0.00000000,-1.43024100,3.78321800,0.00184547
-5.23999969,0.00000000,-0.93811510,3.84473400,0.00098425
-5.15999969,0.01537894,-0.49212600,3.89087100,0.00033834
-5.07999969,0.00000000,-0.13841040,3.90625000,0.00003076
-4.99999969,-0.01537894,0.12303150,3.92162900,0.00006152
-4.91999969,-0.04613681,0.30757870,3.93700800,0.00046137
-4.83999968,-0.09227362,0.43061020,3.93700800,0.00116880
-4.75999968,-0.16916830,0.50750490,3.95238700,0.00218381
-4.67999968,-0.23068400,0.53826270,3.95238700,0.00335261
-4.59999968,-0.30757870,0.53826270,3.95238700,0.00455217
-4.51999968,-0.35371550,0.50750490,3.95238700,0.00572097
-4.43999968,-0.33833660,0.43061020,3.93700800,0.00670522
-4.35999968,-0.27682080,0.30757870,3.92162900,0.00741265
-4.27999968,-0.10765260,0.12303150,3.92162900,0.00778174
-4.19999968,0.13841040,-0.13841040,3.92162900,0.00778174
-4.11999967,0.49212600,-0.49212600,3.92162900,0.00741265
-4.03999967,0.92273620,-0.93811510,3.93700800,0.00670522
-3.95999967,1.43024100,-1.43024100,3.95238700,0.00572097
-3.87999967,1.96850400,-1.96850400,3.95238700,0.00455217
-3.79999967,2.52214600,-2.52214600,3.95238700,0.00335261
-3.71999967,3.01427100,-3.02965000,3.95238700,0.00218381
-3.63999967,3.42950300,-3.44488200,3.93700800,0.00116880
-3.55999967,3.73708200,-3.75246000,3.92162900,0.00046137
-3.47999967,3.89087100,-3.90625000,3.92162900,0.00006152
-3.39999966,3.90625000,-3.89087100,3.92162900,0.00003076
-3.31999966,3.78321800,-3.70632400,3.92162900,0.00033834
-3.23999966,3.53715500,-3.35260800,3.93700800,0.00098425
-3.15999966,3.18344000,-2.86048200,3.95238700,0.00184547
-3.07999966,2.75283000,-2.27608300,3.95238700,0.00286048
-2.99999966,2.27608300,-1.67630400,3.95238700,0.00396777
-2.91999966,1.78395700,-1.09190400,3.95238700,0.00501353
-2.83999966,1.27645200,-0.58439960,3.93700800,0.00599779
-2.75999966,0.76894680,-0.23068400,3.93700800,0.00685901
-2.67999966,0.26144190,-0.03075787,3.92162900,0.00756644
-2.59999965,-0.26144190,-0.01537894,3.90625000,0.00808932
-2.51999965,-0.79970470,-0.16916830,3.89087100,0.00848917
-2.43999965,-1.36872500,-0.49212600,3.84473400,0.00873524
-2.35999965,-1.93774600,-0.92273620,3.78321800,0.00891978
-2.27999965,-2.52214600,-1.43024100,3.72170300,0.00898130
-2.19999965,-3.06040800,-1.98388300,3.64480800,0.00898130
-2.11999965,-3.53715500,-2.50676700,3.59867100,0.00888903
-2.03999965,-3.87549200,-2.99889300,3.59867100,0.00873524
-1.95999965,-4.06003900,-3.42950300,3.66018700,0.00845842
-1.87999964,-4.02928100,-3.78321800,3.81397600,0.00808932
-1.79999964,-3.75246000,-4.04466000,4.04466000,0.00756644
-1.71999964,-3.24495600,-4.24458600,4.36761800,0.00695128
-1.63999964,-2.50676700,-4.36761800,4.76747000,0.00621309
-1.55999964,-1.58403000,-4.45989200,5.21345900,0.00535187
-1.47999964,-0.53826270,-4.49065000,5.69020700,0.00442913
-1.39999964,0.53826270,-4.49065000,6.16695300,0.00347564
-1.31999964,1.58403000,-4.44451300,6.68983700,0.00252215
-1.23999964,2.50676700,-4.36761800,7.24347900,0.00166093
-1.15999963,3.24495600,-4.22920700,7.72022600,0.00089198
-1.07999963,3.75246000,-4.04466000,7.92015200,0.00024606
-0.99999963,4.02928100,-3.78321800,7.62795300,-0.00021531
-0.91999963,4.06003900,-3.47564000,6.73597400,-0.00052288
-0.83999963,3.87549200,-3.10654500,5.16732200,-0.00067667
-0.75999963,3.53715500,-2.67593500,3.04502900,-0.00067667
-0.67999963,3.06040800,-2.21456700,0.63053640,-0.00061516
-0.59999963,2.52214600,-1.73782000,-1.59940900,-0.00046137
-0.51999963,1.93774600,-1.27645200,-2.86048200,-0.00030758
-0.43999963,1.35334600,-0.83046260,-2.42987200,-0.00018455
-0.35999962,0.78432570,-0.46136810,0.07689468,-0.00006152
-0.27999962,0.26144190,-0.13841040,4.73671200,0.00000000
-0.19999962,-0.24606300,0.12303150,11.42655000,0.00000000
-0.11999962,-0.72281000,0.30757870,19.77731000,-0.00006152
-0.03999962,-1.18417800,0.43061020,29.40452000,-0.00018455
0.04000038,-1.61478800,0.50750490,39.87758000,-0.00030758
0.12000038,-2.04539800,0.53826270,50.96579000,-0.00046137
0.20000038,-2.44525100,0.53826270,62.63840000,-0.00061516
0.28000038,-2.87586100,0.50750490,75.17224000,-0.00067667
0.36000039,-3.32185000,0.44598910,89.09018000,-0.00067667
0.44000039,-3.70632400,0.32295760,104.91510000,-0.00052288
0.52000039,-3.92162900,0.12303150,123.18530000,-0.00021531
0.60000039,-3.82935500,-0.15378940,144.25440000,0.00024606
0.68000039,-3.35260800,-0.53826270,168.16870000,0.00089198
0.76000039,-2.46063000,-1.03038900,194.55890000,0.00166093
0.84000039,-1.19955700,-1.59940900,222.62550000,0.00252215
0.92000039,0.24606300,-2.21456700,251.13800000,0.00347564
1.00000039,1.58403000,-2.82972400,278.48180000,0.00442913
1.08000039,2.32221900,-3.36798700,302.84200000,0.00535187
1.16000040,1.96850400,-3.79859700,322.46550000,0.00618233
1.24000040,0.41523130,-4.04466000,335.72220000,0.00692052
1.32000040,-2.24532500,-4.02928100,341.44310000,0.00756644
1.40000040,-5.76710100,-3.73708200,338.98250000,0.00808932
1.48000040,-9.81176100,-3.12192400,328.35570000,0.00855069
1.56000040,-14.10248000,-2.22994600,310.19310000,0.00891978
1.64000040,-18.47010000,-1.10728300,285.72530000,0.00922736
1.72000040,-23.00689000,0.16916830,256.62830000,0.00947343
1.80000040,-28.06656000,1.46099900,224.79390000,0.00959646
1.88000041,-34.57185000,2.56828200,192.17520000,0.00950418
1.96000041,-43.43012000,3.35260800,160.52530000,0.00913509
2.04000041,-55.14886000,3.78321800,131.32070000,0.00858145
2.12000041,-69.92802000,3.92162900,105.56100000,0.00802781
2.20000041,-87.65993000,3.89087100,83.72293000,0.00775098
2.28000041,-107.92940000,3.79859700,65.83722000,0.00787402
2.36000041,-130.10580000,3.76783900,51.50406000,0.00851993
2.44000041,-153.48180000,3.78321800,40.07751000,0.00962722
2.52000041,-177.41140000,3.76783900,30.74249000,0.01088829
2.60000042,-201.40250000,3.47564000,22.66855000,0.01181102
2.68000042,-225.43980000,2.39911400,15.22515000,0.01144193
2.76000042,-249.63090000,0.03075787,8.10469900,0.00885827
2.84000042,-273.86810000,-3.73708200,1.29183100,0.00384473
2.92000042,-297.95150000,-8.81213000,-4.99815400,-0.00347564
3.00000042,-321.65050000,-14.94833000,-10.44230000,-0.01261073
3.08000042,-344.64200000,-21.77658000,-14.68688000,-0.02300689
3.16000042,-366.55690000,-28.95854000,-17.50123000,-0.03401821
3.24000042,-387.04170000,-36.29429000,-18.80844000,-0.04533711
3.32000042,-405.77320000,-43.81459000,-18.73154000,-0.05702510
3.40000043,-422.53630000,-51.81164000,-17.79343000,-0.06960507
3.48000043,-437.40770000,-61.13127000,-16.50160000,-0.08449188
3.56000043,-450.46440000,-72.65009000,-15.11749000,-0.10322340
3.64000043,-461.66030000,-86.89099000,-13.74877000,-0.12684550
3.72000043,-470.82610000,-104.06930000,-12.42618000,-0.15594240
3.80000043,-477.82350000,-124.10800000,-11.08821000,-0.19060650
3.88000043,-482.45260000,-146.63820000,-9.61183500,-0.23034570
3.96000043,-484.57490000,-171.02910000,-7.92015200,-0.27414490
4.04000043,-484.11350000,-196.52740000,-5.95164800,-0.32058930
4.12000044,-481.11460000,-222.37940000,-3.70632400,-0.36804870
4.20000044,-475.67050000,-247.92380000,-1.32258800,-0.41489300
4.28000044,-468.13480000,-272.89920000,1.03038900,-0.45989170
4.36000044,-458.98430000,-297.16720000,3.27571300,-0.50193770
4.44000044,-448.61900000,-320.45090000,5.30573300,-0.54004680
4.52000044,-437.34620000,-342.50430000,7.07431000,-0.57351130
4.60000044,-425.42750000,-363.12740000,8.53530900,-0.60187010
4.68000044,-412.93980000,-382.08970000,9.70410800,-0.62493850
4.76000044,-399.88310000,-399.19100000,10.58071000,-0.64271650
4.84000045,-386.16510000,-414.21620000,11.21124000,-0.65548100
4.92000045,-371.66280000,-427.01150000,11.64185000,-0.66344730
5.00000045,-356.13000000,-437.45380000,11.91868000,-0.66701530
5.08000045,-339.47460000,-445.52780000,12.07246000,-0.66652310
5.16000045,-322.05030000,-451.29490000,12.11860000,-0.66227850
5.24000045,-304.34910000,-454.66290000,12.07246000,-0.65434300
5.32000045,-286.92480000,-455.53950000,11.90330000,-0.64268580
5.40000045,-270.31560000,-453.80160000,11.59572000,-0.62721460
5.48000045,-254.89050000,-449.37250000,11.10359000,-0.60786780
5.56000045,-240.80340000,-442.26750000,10.45768000,-0.58470720
5.64000046,-227.96200000,-432.56330000,9.62721400,-0.55797860
5.72000046,-216.04330000,-420.46010000,8.68909800,-0.52808200
5.80000046,-204.29380000,-406.23460000,7.65871000,-0.49566310
5.88000046,-192.06750000,-390.30200000,6.64370100,-0.46158340
5.96000046,-179.16460000,-373.29290000,5.69020700,-0.42698080
6.04000046,-165.69270000,-355.76090000,4.85974400,-0.39296260
6.12000046,-151.95930000,-338.16740000,4.18307100,-0.36054380
6.20000046,-138.37970000,-320.89690000,3.70632400,-0.33046260
6.28000046,-125.32290000,-304.13390000,3.39874500,-0.30311890
6.36000047,-113.11210000,-287.89370000,3.26033400,-0.27857400
6.44000047,-101.88550000,-272.06880000,3.26033400,-0.25642840
6.52000047,-91.56618000,-256.44380000,3.33722900,-0.23615900
6.60000047,-81.73905000,-240.61880000,3.47564000,-0.21678150
6.68000047,-71.98880000,-224.37870000,3.61405000,-0.19752710
6.76000047,-62.26931000,-207.92320000,3.75246000,-0.17830340
6.84000047,-52.73437000,-191.63690000,3.84473400,-0.15951030
6.92000047,-43.56853000,-176.04270000,3.90625000,-0.14170150
7.00000047,-35.07935000,-161.61720000,3.93700800,-0.12552290
7.08000048,-27.46678000,-148.74510000,3.95238700,-0.11155880
7.16000048,-20.91535000,-137.56460000,3.95238700,-0.10014760
7.24000048,-15.45583000,-128.04500000,3.95238700,-0.09128937
7.32000048,-11.01132000,-119.86340000,3.95238700,-0.08461491
7.40000048,-7.24347900,-112.34310000,3.95238700,-0.07914001
7.48000048,-3.90625000,-104.86900000,3.95238700,-0.07391117
7.56000048,-0.96887300,-97.25639000,3.93700800,-0.06859006
7.64000048,1.49175700,-89.56693000,3.92162900,-0.06311516
7.72000048,3.30647100,-82.04662000,3.92162900,-0.05760950
7.80000048,4.30610200,-75.00307000,3.92162900,-0.05231914
7.88000049,4.35223900,-68.72846000,3.92162900,-0.04764395
7.96000049,3.39874500,-63.45349000,3.93700800,-0.04376845
8.04000049,1.49175700,-59.19353000,3.95238700,-0.04084646
8.12000049,-1.15342000,-55.85630000,3.95238700,-0.03881644
8.20000049,-4.21382900,-52.98043000,3.95238700,-0.03730930
8.28000049,-7.30499500,-50.10457000,3.95238700,-0.03592520
8.36000049,-10.22699000,-47.10568000,3.93700800,-0.03457185
8.44000049,-12.77990000,-43.95300000,3.93700800,-0.03321850
8.52000049,-14.84067000,-40.76956000,3.92162900,-0.03195743
8.60000050,-16.40932000,-37.73991000,3.90625000,-0.03085015
8.68000050,-17.48585000,-35.06397000,3.89087100,-0.03005044
8.76000050,-18.13177000,-32.86478000,3.84473400,-0.02961983
8.84000050,-18.47010000,-31.17310000,3.78321800,-0.02952756
8.92000050,-18.59313000,-29.92741000,3.72170300,-0.02980438
9.00000050,-18.59313000,-28.82013000,3.64480800,-0.03020423
9.08000050,-18.57775000,-27.54367000,3.59867100,-0.03057333
9.16000050,-18.65465000,-25.88275000,3.59867100,-0.03091166
9.24000050,-18.88533000,-23.74508000,3.66018700,-0.03115773
9.32000051,-19.31594000,-21.09990000,3.81397600,-0.03131152
9.40000051,-19.94648000,-18.00873000,4.06003900,-0.03143455
9.48000051,-20.74619000,-14.56385000,4.41375400,-0.03155758
9.56000051,-21.63816000,-10.88829000,4.85974400,-0.03171137
9.64000051,-22.59166000,-7.08968900,5.38262700,-0.03189592
9.72000051,-23.54515000,-3.30647100,5.92089000,-0.03208046
9.80000051,-24.42175000,0.44598910,6.47453200,-0.03223425
9.88000051,-25.23683000,4.13693400,6.96665800,-0.03223425
9.96000051,-25.94427000,7.70484700,7.38188900,-0.03211122
10.04000051,-26.59018000,11.10359000,7.67408900,-0.03189592
10.12000052,-27.17458000,14.24089000,7.82787800,-0.03155758
10.20000052,-27.72822000,17.07062000,7.81250000,-0.03118848
10.28000052,-28.26648000,19.56201000,7.62795300,-0.03078863
10.36000052,-28.78937000,21.69968000,7.28961600,-0.03038878
10.44000052,-29.28149000,23.48363000,6.79749000,-0.02998893
10.52000052,-29.69673000,24.94463000,6.22846900,-0.02955832
10.60000052,-29.95817000,26.09805000,5.62869100,-0.02900467
10.68000052,-30.00430000,26.97465000,5.02891200,-0.02826649
10.76000052,-29.71210000,27.54367000,4.52140800,-0.02725148
10.84000053,-29.08157000,27.78974000,4.15231300,-0.02599040
10.92000053,-28.09732000,27.66671000,3.95238700,-0.02442175
11.00000053,-26.74397000,27.15920000,3.95238700,-0.02260704
11.08000053,-25.06767000,26.26722000,4.15231300,-0.02054626
11.16000053,-23.12992000,25.02153000,4.52140800,-0.01833169
11.24000053,-20.97687000,23.42212000,5.02891200,-0.01602485
11.32000053,-18.65465000,21.54589000,5.62869100,-0.01362574
11.40000053,-16.20940000,19.43897000,6.22846900,-0.01116511
11.48000053,-13.62574000,17.13213000,6.79749000,-0.00867372
11.56000053,-10.91905000,14.64075000,7.28961600,-0.00612082
